RamanShift,CorrectedData
30.1047,37.202905289551836
32.3739,33.57322966757241
34.6426,31.743553673563923
36.9109,30.11387659976503
39.1787,28.03419742097884
41.4461,22.55451481086968
43.7131,21.374827162759907
45.9796,17.945132644426707
48.2456,13.36542920989898
50.5112,11.585714633754286
52.7764,11.005986556915893
55.0411,5.726242504449907
57.3054,0.5464798913625721
59.5692,0.01669607539770457
61.8326,-1.413111591165682
64.0955,-3.1929457562155346
66.3579,-6.4727949506550075
68.6199,-7.352615807859156
70.8815,-9.33230029798148
73.1426,-4.061666938543576
75.4032,-0.9904410173870595
77.6634,7.531692753699147
79.9231,27.65505955743187
82.1824,69.42998450121104
84.4412,137.256792415886
86.6995,248.63580743800622
88.9574,371.41735233155333
91.2148,466.30174737415086
93.4717,511.08930912924893
95.7282,502.6303494972799
97.9842,494.6251752677834
100.2398,478.92408820399544
102.4949,476.62738512290053
104.7495,500.2853580522418
107.0036,497.2982942534891
109.2573,475.71647598525834
111.5105,444.2901805331829
113.7632,443.7196804257309
116.0154,442.0052437484692
118.2672,431.64713414976757
120.5185,442.8456108579435
122.7693,426.0009287848431
125.0197,422.3133384138565
127.2696,406.7830859683646
129.519,400.81041344861495
131.7679,405.39555878702436
134.0163,384.1887559079055
136.2642,388.94023468161555
138.5117,395.2002211366241
140.7587,384.56893741199866
143.0052,374.34660169480424
145.2512,365.73342832641663
147.4967,358.22962790474566
149.7417,350.4354073703671
151.9863,355.60097008156015
154.2304,360.57651589225014
156.4739,345.7122411003528
158.717,340.9083383980187
160.9596,335.11499702027623
163.2017,337.38240279307036
165.4433,332.5107381911963
167.6844,322.8001823156251
169.925,311.7509109422207
172.1651,313.96309661884527
174.4047,307.4369087758519
176.6439,306.4725137039627
178.8825,297.2700746195309
181.1206,294.1297516741844
183.3582,296.6017020468509
185.5954,294.8360799751604
187.832,292.28303673072617
190.0681,292.4427206368006
192.3037,288.61527709380584
194.5388,281.65084857773746
196.7734,275.39957467843766
199.0075,284.16159216924075
201.2411,283.9370350694851
203.4742,275.1260345568934
205.7068,276.92871896981785
207.9389,270.69521389535083
210.1704,269.7256421512973
212.4015,265.02012384851025
214.632,260.37877640058656
216.862,254.90171457092188
219.0915,258.73905051912425
221.3205,257.19089385578457
223.549,251.65735160410375
225.777,254.08852821537351
228.0044,252.4345256243125
230.2314,243.34544322475404
232.4578,243.67137788618626
234.6837,239.21242404464306
236.909,244.06867369944447
239.1339,241.1902164577865
241.3582,238.07713948617842
243.582,231.42952753922754
245.8053,229.39746299076964
248.0281,229.63102590034558
250.2503,236.5302940335215
252.472,230.04534285955341
254.6932,229.82624548239448
256.9139,222.77307270554462
259.134,216.08589303424122
261.3536,228.11477274599116
263.5727,220.2097759574426
265.7912,211.320964504096
268.0092,210.64839801935423
270.2267,213.69213402341074
272.4436,208.70222792997527
274.6601,201.27873301583617
276.8759,202.22170047075986
279.0913,200.58117947172536
281.3061,196.25721717349495
283.5204,203.3498587250192
285.7341,195.1591473126765
287.9473,199.88512408934702
290.16,191.7278282563193
292.3721,188.4372970160311
294.5837,192.563565653642
296.7947,188.3066675699389
299.0052,185.916634240073
301.2152,183.84349525612907
303.4246,175.9372783510255
305.6334,175.19800941924603
307.8418,183.77571259590155
310.0495,171.92041026412306
312.2568,173.63212296928447
314.4635,176.66086953755587
316.6696,167.55666705878622
318.8752,168.46953085621595
321.0802,162.04947457751894
323.2847,164.3465101856741
325.4887,162.01064802316574
327.692,157.94189678901313
329.8949,160.7402635621291
332.0972,157.40575384200758
334.2989,157.7383715207397
336.5001,157.9381189163592
338.7007,153.2049967695163
340.9008,147.53900424148026
343.1003,151.0901389614703
345.2992,147.25839708331614
347.4976,146.8437732499458
349.6955,142.3962606317039
351.8927,149.11585093049723
354.0895,136.15253442427024
356.2856,140.70629989980915
358.4812,143.3771347823747
360.6763,141.7150250901649
362.8707,134.86995540760637
365.0646,127.2919089019756
367.258,128.23086739184998
369.4508,125.98681142288768
371.643,133.55972025843857
373.8346,135.99957190198432
376.0257,142.55634302140942
378.2162,147.0800089246028
380.4062,138.9205434938902
382.5956,129.97791914079755
384.7844,128.15210688764506
386.9726,116.54307645697395
389.1603,124.20079628980449
391.3474,113.82523366172654
393.5339,112.76635460632241
395.7199,112.02412401892212
397.9052,107.74850566719238
400.09,107.08946219855869
402.2743,103.94695518296169
404.4579,101.87094511944758
406.641,109.3113914675933
408.8235,113.66825266826623
411.0054,120.24148606922029
413.1868,181.13104788152674
415.3675,254.68689311384253
417.5477,285.658974963514
419.7273,234.54724408101924
421.9064,152.80164826024634
424.0848,125.7721329496112
426.2627,120.55864206951333
428.4399,125.36111828263091
430.6166,124.57950304605583
432.7928,118.56373656326878
434.9683,108.41375779195539
437.1432,100.57950450416433
439.3176,90.46091338780667
441.4914,83.80792012499865
443.6645,86.97045949324752
445.8371,95.84846543198131
448.0091,99.59187101092385
450.1806,86.10060834131434
452.3514,77.57460853847346
454.5216,64.01380185671621
456.6913,61.51811777461177
458.8603,59.53748513059145
461.0288,53.671832147905945
463.1967,49.47108645443103
465.3639,55.3351751413245
467.5306,51.66402480503331
469.6967,48.65756148865296
471.8622,47.46571071863866
474.0271,44.83839753487047
476.1914,45.82554650257174
478.3551,45.077081738581796
480.5182,37.14292690148477
482.6807,36.62300519909411
484.8426,27.66723946779433
487.0039,31.275552177739996
489.1647,37.44786552241334
491.3248,44.13410138254142
493.4843,40.184181264372626
495.6432,37.54802623281472
497.8015,41.57555695093362
499.9592,44.16669370631507
502.1163,41.171356370789
504.2728,30.539464374518843
506.4287,31.070936735954604
508.5839,25.61569216815161
510.7386,33.523649073456
512.8927,35.39472559805722
515.0461,37.528839552908096
517.199,35.82590839501444
519.3512,35.23584920609386
521.5029,30.5585787096054
523.6539,28.594013276649775
525.8043,28.792068972742072
527.9541,30.052661577457513
530.1033,24.875706582450732
532.2519,24.961119178849913
534.3999,24.658814309026525
536.5472,19.618706665740547
538.694,23.790710695164194
540.8401,21.4747406472826
542.9856,30.0207105341741
545.1305,32.828534153169585
547.2748,32.89812500139328
549.4185,36.02939624768413
551.5615,32.27226073189996
553.704,33.726630933604554
555.8458,27.04241900963973
557.987,30.519536779580562
560.1276,22.857895792578347
562.2675,31.157407292588857
564.4069,27.017982294989224
566.5456,27.78953150358251
568.6837,27.271965351992264
570.8212,31.265193995946788
572.958,46.16912731845491
575.0942,60.33367488987392
577.2299,51.30874581886974
579.3648,28.794248610772
581.4992,11.740091257823053
583.6329,4.09618146432274
585.766,-0.23757318282986262
587.8985,0.33869398241108684
590.0304,0.774851999447435
592.1616,9.470766524128067
594.2922,12.326295471530443
596.4222,4.041296662024649
598.5515,11.765627792718021
600.6802,8.049146520305385
602.8083,5.591710383825216
604.9358,2.143176841824868
607.0626,13.653403296934869
609.1888,8.872225741448858
611.3144,11.699480031126484
613.4393,13.685001933005594
615.5636,10.028627097129288
617.6873,13.480191036691167
619.8103,6.089529164598673
621.9327,4.806476758957558
624.0544,11.83086903697864
626.1756,1.4625411678081264
628.2961,10.451328202283946
630.4159,6.497050580457426
632.5351,6.09952863786674
634.6537,8.108582645079878
636.7716,15.174032811669633
638.8889,13.795699266122938
641.0056,16.723401985186854
643.1216,9.556960807651535
645.237,8.79619540507315
647.3518,6.5909253534385925
649.4659,-1.3590298592275758
651.5793,-3.353850810809604
653.6922,-1.9937045024840359
655.8043,2.771275569541956
657.9159,-0.9590241738312102
660.0268,2.0652826605841597
662.137,1.794092046627327
664.2466,11.677299937484577
666.3556,8.814802268401309
668.4639,3.3564948578502936
670.5716,-3.297726563843753
672.6786,0.8520337000794029
674.785,2.4057042906678703
676.8907,6.413213840449657
678.9958,2.474490957896137
681.1002,4.4394641873464025
683.204,8.408062048395152
685.3072,8.730213016242203
687.4097,5.605845482007169
689.5115,0.43488774950748166
691.6127,2.5172680665024245
693.7132,-3.347085323597412
695.8131,8.341755797446183
697.9123,6.1837530852535565
700.0109,10.128868112027646
702.1089,7.577062388133925
704.2061,9.47829732264961
706.3028,9.182534248881268
708.3987,4.7397344053525785
710.4941,8.849858938761997
712.5887,0.8628689484108918
714.6827,5.278725445101998
716.7761,-1.1526105689904966
718.8688,4.318821855520582
720.9608,7.892995182601794
723.0522,12.669881833031752
725.1429,8.799454148659606
727.233,9.781684344635721
729.3224,12.766544548116258
731.4112,15.504006788440563
733.4993,9.844042967282974
735.5867,17.236624831277766
737.6735,31.231724028619226
739.7596,37.42931203513518
741.845,39.22936001433641
743.9298,55.0318387554409
746.014,70.53671865537325
748.0974,85.29396956073953
750.1802,92.35356061277895
752.2624,82.31546009979104
754.3439,67.67963538653976
756.4247,55.14605301463473
758.5048,40.014678848889275
760.5843,28.985478202656452
762.6631,23.90841598914284
764.7413,15.583456831700175
766.8188,13.260565114596261
768.8956,8.089705066264514
770.9718,9.570840782532741
773.0473,10.903936278332196
775.1221,15.3389554728858
777.1962,3.7758621763772453
779.2697,9.514620045600338
781.3426,3.9551926995906683
783.4147,2.747543662237888
785.4862,4.591636417879613
787.557,4.537434423378329
789.6271,5.634901089680284
791.6966,-0.7660002176425564
793.7654,-2.9653061893668564
795.8335,2.3369464913907336
797.901,5.140750764922245
799.9678,6.746099548150596
802.0339,10.702985706591448
804.0993,5.31140203829932
806.1641,4.271341234299143
808.2282,2.7827959325018696
810.2916,5.94575872810492
812.3544,2.660222188478315
814.4164,3.226178821534745
816.4778,7.093621108584955
818.5385,8.712541498677865
820.5986,8.232932369926857
822.658,10.504786013319858
824.7166,0.5780946375157328
826.7747,6.152850346125604
828.832,-1.0209547630201428
830.8886,6.556671346380767
832.9446,4.885720720840254
834.9999,3.7161853413035146
837.0545,2.8980571398587927
839.1085,9.881328011432629
841.1618,8.415989821970697
843.2143,6.352034338605733
845.2662,4.639453244310914
847.3175,8.728238158539
849.368,10.818380654348346
851.4179,10.109872217515147
853.467,8.252704225632158
855.5155,8.796867955193534
857.5633,13.742354600166664
859.6105,16.239155266550426
861.6569,15.537260922920382
863.7027,18.786662375460537
865.7478,27.38735027498234
867.7922,26.88931508443079
869.8359,39.24254699287752
871.8789,51.247035920501276
873.9212,70.25277139505573
875.9629,93.65974243182438
878.0039,126.96793734356328
880.0441,159.02734350643112
882.0837,174.5879470269076
884.1226,182.09973242119952
886.1609,162.96268245963432
888.1984,137.2767780915421
890.2352,101.29199863662637
892.2714,82.20832204182318
894.3069,60.375725241148814
896.3416,43.594184346536565
898.3757,33.76367486616272
900.4091,33.58417187226195
902.4418,33.355650099432296
904.4739,32.028083946430115
906.5052,19.90144747845534
908.5358,21.32571444042719
910.5658,23.350858378250734
912.595,19.726852624573837
914.6236,20.6536702785358
916.6515,18.63128424200744
918.6786,16.859667210323096
920.7051,18.488791692504037
922.7309,19.11863002897502
924.756,10.999154375273065
926.7804,17.730336695748747
928.8041,18.862148844761407
930.8272,13.044562499366918
932.8495,18.127549148000128
934.8711,15.16108014865057
936.892,10.44512667803258
938.9123,5.779659761249775
940.9318,16.56465031895459
942.9506,14.500069214002906
944.9688,11.535887143604441
946.9862,13.772074659968382
949.003,13.25860219994513
951.019,12.795440062664738
953.0344,10.332558414671496
955.0491,12.5699272945551
957.063,18.807516637580136
959.0763,10.54529625331213
961.0888,13.083235763241476
963.1007,13.87130468340564
965.1119,8.759472399010292
967.1223,6.347708156547924
969.1321,5.135981114916547
971.1412,14.824260369537171
973.1495,8.062514964471006
975.1572,18.950713795536842
977.1641,13.788825677928287
979.1704,20.026819237331836
981.1759,11.514662961546264
983.1808,19.852325138101946
985.1849,14.289773939382712
987.1884,15.326977339249595
989.1911,14.113903168665672
991.1932,17.600519105324565
993.1945,16.836792685780836
995.1951,19.922691270584096
997.1951,14.45818205191597
999.1943,18.89323202273124
1001.1928,14.277808031403254
1003.1906,15.511876737373086
1005.1877,13.79540465730389
1007.1841,15.778358152740282
1009.1798,12.710703447272977
1011.1748,11.6924066067088
1013.1691,10.873433569747647
1015.1627,14.903750158165508
1017.1556,11.733322085003863
1019.1477,14.662114914266908
1021.1392,13.540094092625566
1023.1299,6.417224920129911
1025.12,3.5434725614290414
1027.1093,-2.331197882999845
1029.0979,-0.9068213481141925
1031.0859,4.61659051979575
1033.0731,13.189035133584639
1035.0596,19.510509859941635
1037.0454,24.131011933665548
1039.0304,28.300538394450484
1041.0148,32.069086040680475
1042.9985,37.43665138773446
1044.9814,49.50323063030089
1046.9636,54.318819588701615
1048.9452,59.733413588226426
1050.926,55.94700741097688
1052.9061,61.05959524172084
1054.8855,64.27117070575576
1056.8642,60.581726817783874
1058.8421,51.441255949795504
1060.8194,49.649749867963976
1062.7959,38.20719982405035
1064.7717,39.51359657331835
1066.7469,37.66893048895997
1068.7213,35.87319154903139
1070.695,35.97636935489959
1072.6679,36.72845314919971
1074.6402,39.3794318148033
1076.6117,37.279293867297554
1078.5826,41.47802742847563
1080.5527,40.77562024733771
1082.5221,48.222059658104115
1084.4908,54.61733258723899
1086.4587,60.71142547898603
1088.426,58.50432423141558
1090.3925,67.99601413548413
1092.3584,78.28647989710504
1094.3235,75.0257055422316
1096.2879,76.96367431395242
1098.2515,77.85036870509902
1100.2145,72.43577043886654
1102.1767,64.56986045994637
1104.1382,56.552618988672236
1106.099,47.38402559967972
1108.0591,46.914059302078215
1110.0185,42.642698631136966
1111.9771,45.91992165298484
1113.9351,48.195706007323736
1115.8923,35.07002887465643
1117.8488,38.29286695352903
1119.8045,40.86419659178705
1121.7596,34.73399375434781
1123.7139,33.20223399748642
1125.6675,34.96889253013842
1127.6204,36.78394422921707
1129.5726,28.697363621946806
1131.524,30.0091248677129
1133.4748,26.71920183892712
1135.4248,25.4775681079102
1137.3741,30.184196979791068
1139.3226,24.539061504922927
1141.2705,19.992134431817533
1143.2176,18.243388263596046
1145.164,23.99279530345831
1147.1097,21.140327672170486
1149.0546,18.8359572505708
1150.9989,23.07965570809438
1152.9424,19.87139452581701
1154.8852,19.761144954018192
1156.8272,22.398878044263682
1158.7686,20.584564650507815
1160.7092,19.1681754027164
1162.6491,22.099680725009904
1164.5883,16.179050849826837
1166.5267,19.10625578860916
1168.4644,14.981265391008492
1170.4014,15.504049315613969
1172.3377,21.374577071202395
1174.2732,11.942818011510383
1176.2081,17.80874127652865
1178.1421,14.922315886819973
1180.0755,16.683510684859755
1182.0082,17.09229436390021
1183.9401,12.548635450358603
1185.8713,10.752502299729258
1187.8017,8.45386314202014
1189.7315,3.652686099714259
1191.6605,-7.201060789243655
1193.5888,3.042590476564186
1195.5163,13.78367983715259
1197.4432,9.222247202110623
1199.3693,11.108332343190426
1201.2947,15.841974939921812
1203.2193,9.023214560751398
1205.1432,17.25209061570615
1207.0664,13.02864242458088
1208.9889,10.102909134649451
1210.9106,12.424929762899552
1212.8316,16.194743225289983
1214.7519,17.812388313530306
1216.6715,13.877903657382632
1218.5903,17.241327708485187
1220.5084,10.602698779697306
1222.4257,12.76205501146518
1224.3424,10.86943443820789
1226.2583,9.62487496672452
1228.1735,17.52841439511957
1230.0879,14.980090425249102
1232.0016,16.829940583684674
1233.9146,10.928002247196787
1235.8269,15.774312624256396
1237.7384,18.71890881405463
1239.6492,15.36182775803951
1241.5592,11.4031062104701
1243.4686,16.142780771987077
1245.3772,17.68088792920028
1247.285,18.31746400729162
1249.1922,19.052545154634288
1251.0986,18.93616733642702
1253.0042,21.41836632734325
1254.9092,15.349177712694853
1256.8134,16.42863686361025
1258.7169,22.406778997726178
1260.6196,20.333639168393063
1262.5216,23.809252204893795
1264.4229,26.383652733174927
1266.3234,29.50687514109046
1268.2232,38.978953552657885
1270.1223,39.34992179682624
1272.0207,42.719813312755065
1273.9183,39.63866114610491
1275.8151,36.45649791533819
1277.7113,41.3233558425309
1279.6067,36.139266785194195
1281.5014,33.55426218760559
1283.3953,35.368373132650504
1285.2885,30.83163036767138
1287.181,32.54406428632734
1289.0727,20.65570497396115
1290.9637,30.016582190475248
1292.854,31.42672548921533
1294.7435,24.03616412336126
1296.6323,25.74492703182588
1298.5204,20.653042913160505
1300.4077,26.610540208467114
1302.2943,21.967447152317334
1304.1802,23.673791713177536
1306.0653,27.47960163983987
1307.9497,16.734904444358392
1309.8333,28.289727363991375
1311.7162,26.144097468648425
1313.5984,21.39804154534201
1315.4798,31.651586119643696
1317.3605,25.90475750314468
1319.2405,23.85758169092074
1321.1197,28.51008441900001
1322.9982,24.21229118483504
1324.876,32.91422720077739
1326.753,26.96591743705585
1328.6293,27.21738653475714
1330.5048,21.818658865308777
1332.3796,24.31975852796475
1334.2537,29.420709403792443
1336.127,30.221535130661863
1337.9996,29.37225905223616
1339.8714,29.172904209963207
1341.7426,34.32349335156866
1343.6129,29.874048933048897
1345.4826,28.77459306716557
1347.3515,33.27514756793974
1349.2196,35.075733961646705
1351.087,26.926373441810313
1352.9537,30.677086851197316
1354.8197,33.977894763310786
1356.6849,32.02881744488312
1358.5493,32.179874822867845
1360.4131,31.881086503930533
1362.276,35.1324717729382
1364.1383,31.434049595947045
1365.9998,31.485838587688704
1367.8606,31.137857048554338
1369.7206,33.59012296407698
1371.5799,33.792654008411006
1373.4384,34.49546751980978
1375.2962,34.5485804986001
1377.1533,38.40200960015423
1379.0096,34.90577113435867
1380.8652,31.90988102707996
1382.7201,35.56435485512699
1384.5742,37.66920787620998
1386.4275,37.12445499239564
1388.2802,33.98011072905862
1390.132,27.98618924032911
1391.9832,34.3927043405362
1393.8336,31.799669564147365
1395.6832,32.90709810170301
1397.5322,27.765002825747075
1399.3803,31.173396279752723
1401.2278,31.082290729543075
1403.0745,32.341698129207316
1404.9204,27.45163012201158
1406.7656,33.062098027805234
1408.6101,31.773112891921414
1410.4538,32.784685429072425
1412.2968,29.84682603623952
1414.139,36.05954478255728
1415.9805,34.97285143869206
1417.8213,27.3367554147149
1419.6613,31.25126577096853
1421.5006,35.31639129442823
1423.3391,35.0321404595567
1425.1769,36.84852138765274
1427.0139,40.415541849693824
1428.8502,38.23320924817244
1430.6858,38.301530581425624
1432.5206,39.92051246545833
1434.3547,39.690161133260375
1436.188,41.81048241861643
1438.0206,48.881481758409734
1439.8524,49.40316417141881
1441.6835,55.67553418760738
1443.5139,58.69859584290762
1445.3435,61.52235261649642
1447.1724,70.29680740056494
1449.0005,71.57196247208074
1450.8279,70.54781940504361
1452.6545,79.02437905773357
1454.4804,76.90164158295275
1456.3056,76.82960634325946
1458.13,73.55827193219571
1459.9536,76.53763617500746
1461.7766,62.91769616135832
1463.5987,59.89844821553527
1465.4202,58.5798880326486
1467.2409,55.31201070882423
1469.0608,47.19481075438932
1470.88,45.378282126550914
1472.6984,46.16241831056814
1474.5161,45.397212337917495
1476.3331,45.93265677845139
1478.1493,39.61874374805018
1479.9648,44.055464903267676
1481.7795,40.99281150447044
1483.5935,46.93077437147036
1485.4067,43.36934391415136
1487.2192,39.25851007308967
1489.031,38.89826235516816
1490.842,36.38858987468464
1492.6522,33.329481356954346
1494.4618,31.57092516340677
1496.2705,33.912909322176716
1498.0785,37.05542154568971
1499.8858,30.94844920724239
1501.6924,30.141979309577152
1503.4981,30.83599854595198
1505.3032,29.230493308204984
1507.1075,26.425449679814534
1508.911,27.22085345195424
1510.7138,22.71669015154319
1512.5159,22.962945033292158
1514.3172,22.909603124744933
1516.1178,30.706649223816186
1517.9176,24.604067899324463
1519.7166,22.70184341302189
1521.515,27.149959780620094
1523.3126,23.948400790812258
1525.1094,21.597149960792166
1526.9055,24.796190568269594
1528.7008,22.495505674982923
1530.4954,24.545078094708543
1532.2893,22.544890416267947
1534.0824,16.994924983031893
1535.8747,15.795163912922334
1537.6663,21.19558915391204
1539.4572,19.996182496022158
1541.2473,19.796925517318044
1543.0367,20.74779959590336
1544.8253,22.898785911912654
1546.6132,19.59986543800258
1548.4003,19.85101891784197
1550.1867,21.652226899101123
1551.9723,20.95346973094007
1553.7572,21.104727545996752
1555.5414,22.505980267374326
1557.3247,14.00720760712872
1559.1074,20.30838905225619
1560.8893,18.959503949680936
1562.6705,9.110531443243332
1564.4509,10.711450487188813
1566.2305,7.862239944657659
1568.0094,8.812878571675725
1569.7876,11.863345045646554
1571.565,16.56361795584513
1573.3417,16.313675772913058
1575.1176,15.413496801855757
1576.8928,8.613059184542095
1578.6672,6.36234090870596
1580.4409,6.011319875950704
1582.2138,9.90997392425632
1583.986,12.908280831489549
1585.7575,16.006218276417542
1587.5282,9.353763808724835
1589.2981,9.050894818033669
1591.0673,7.097588600428878
1592.8358,8.343822361486218
1594.6035,11.539573235805875
1596.3704,17.784818274549707
1598.1366,17.72953441348406
1599.9021,10.62369841052714
1601.6668,10.217286846301846
1603.4308,18.110276195194274
1605.194,18.152642829417772
1606.9564,7.544362940083005
1608.7182,-1.6145874632256607
1610.4791,-1.0242324463673924
1612.2394,1.3154200545270953
1613.9988,3.7543723354093856
1615.7576,7.942626679076739
1617.5156,11.680185330782905
1619.2728,17.467050456355025
1621.0293,18.00322410481874
1622.785,11.738708150529078
1624.54,8.923504287808896
1626.2942,4.807614093593884
1628.0477,-1.0089609444151506
1629.8005,9.473780613406404
1631.5525,8.555850286202912
1633.3037,10.837259498381059
1635.0542,8.0680195887889
1636.804,11.848141787902051
1638.553,9.277637245516047
1640.3013,13.006516992945024
1642.0488,10.484791968726825
1643.7955,0.36247298133420713
1645.5416,7.289570734392186
1647.2868,7.066095927900932
1649.0313,13.342059188965266
1650.7751,15.46747107402905
1652.5181,11.542342006115604
1654.2604,4.866682253573572
1656.0019,9.990501969328335
1657.7427,7.21381125763844
1659.4828,20.836620122857454
1661.222,10.758938497200944
1662.9606,17.830776104518264
1664.6984,19.002142561069746
1666.4354,18.423047304807994
1668.1717,21.343499583664084
1669.9072,23.513508461338688
1671.642,20.483082788097505
1673.3761,21.602231179071282
1675.1094,19.870962044560088
1676.8419,20.989283578841935
1678.5737,20.357203777485267
1680.3048,25.22473042616565
1682.0351,17.241871106986792
1683.7646,14.358633149805087
1685.4934,16.775023712058243
1687.2215,17.041049807597716
1688.9488,13.906718282524679
1690.6754,18.522035812529793
1692.4012,18.487008934236627
1694.1263,20.151643999048503
1695.8506,13.565947173498643
1697.5742,10.079924422604194
1699.297,7.293581575722641
1701.0191,12.406924361412393
1702.7404,12.319958435296058
1704.461,14.982689328927023
1706.1808,13.045122450659335
1707.8999,12.257263059020062
1709.6182,7.619116282085258
1711.3358,3.080687125358338
1713.0527,2.7419805181517347
1714.7688,4.153001358971068
1716.4841,11.813754518902329
1718.1987,13.324244827501445
1719.9126,8.434476996187044
1721.6257,7.744455603135094
1723.338,6.55418514217709
1725.0496,10.01367002969991
1726.7605,10.722914616548707
1728.4706,12.681923153431967
1730.18,4.390699783829064
1731.8886,6.39924852440015
1733.5964,10.207573347898403
1735.3036,7.665678163084522
1737.0099,11.923566776643582
1738.7156,7.281242918603823
1740.4204,8.738710199757918
1742.1246,6.79597215808613
1743.8279,10.403032244181702
1745.5306,3.1598938406782224
1747.2325,0.6165602261790468
1748.9336,11.773034647688661
1750.634,12.479320346045995
1752.3336,6.285420444359744
1754.0325,3.1413379409455047
1755.7307,3.9970757712647185
1757.4281,14.652636839365528
1759.1247,16.858024009325362
1760.8206,19.663239998695445
1762.5158,20.168287356446697
1764.2102,11.72316843491788
1765.9039,13.327885384764798
1767.5968,4.432440239411747
1769.289,6.086834899004202
1770.9804,15.741071219363434
1772.6711,18.59515099544231
1774.361,17.599075864783075
1776.0502,16.60284727897647
1777.7386,15.106466513622493
1779.4263,8.609934678292873
1781.1132,7.213252731494634
1782.7994,4.016421545635595
1784.4849,6.419441920991076
1786.1696,8.6723146176723
1787.8535,8.725040331596091
1789.5367,4.077619671956228
1791.2192,7.5800531606961385
1792.9009,15.882341278983105
1794.5818,15.184484432183893
1796.2621,14.636482866841959
1797.9415,13.638336677655971
1799.6202,7.640045812959869
1801.2982,11.141610084704297
1802.9755,17.643029228439417
1804.6519,13.04430286829951
1806.3277,9.545430451988466
1808.0027,7.646411296767212
1809.6769,6.247244624442459
1811.3504,4.397929580356831
1813.0231,4.248465247380622
1814.6951,5.248850664404927
1816.3664,8.499084827836313
1818.0369,16.64916668159286
1819.7067,17.349095084601743
1821.3757,13.848868729298559
1823.044,17.648486134628
1824.7115,14.94794568104615
1826.3783,14.997245572524236
1828.0443,12.196383863554004
1829.7096,13.895358458654925
1831.3741,11.544167140382598
1833.0379,12.242807552339073
1834.701,5.341277222684923
1836.3633,7.339573557152619
1838.0248,8.837693908061937
1839.6856,10.785635554337048
1841.3457,16.63339568652512
1843.005,17.980971387317055
1844.6636,15.92835957306984
1846.3214,15.8755569803308
1847.9785,13.97256018636375
1849.6349,17.219365609676956
1851.2904,21.615969529053103
1852.9453,21.9623680510812
1854.5994,17.458557066190707
1856.2528,20.354532245187414
1857.9054,15.850289084291646
1859.5572,17.39582287617843
1861.2083,16.691128755020003
1862.8587,24.43620168103034
1864.5084,19.631036447512273
1866.1572,27.6256276034066
1867.8054,24.219969501343854
1869.4528,24.464056217698257
1871.0994,18.507881586644316
1872.7453,21.101439197716047
1874.3905,19.49472245536873
1876.0349,18.187724553043353
1877.6786,23.68043848923368
1879.3215,26.072857080556446
1880.9637,19.764972906824
1882.6051,20.80677828712028
1884.2458,18.848265342879486
1885.8858,20.23942598746811
1887.525,24.880251945770084
1889.1634,28.770734740275174
1890.8011,25.910865644670608
1892.4381,22.750635644936423
1894.0743,18.89003546794393
1895.7098,21.179055613058125
1897.3446,25.51768639074379
1898.9786,27.205917899675242
1900.6118,22.443739983349886
1902.2443,22.33114221320612
1903.8761,26.618113936244953
1905.5071,23.654644276156063
1907.1374,21.840722090447997
1908.7669,19.67633600008287
1910.3957,16.01147440761568
1912.0237,21.29612551883811
1913.651,23.480277379427235
1915.2776,19.313917822098816
1916.9034,19.397034444765964
1918.5285,18.279614652202625
1920.1528,24.011645655212533
1921.7764,23.593114481803255
1923.3992,28.274007919866023
1925.0213,20.954312521360904
1926.6427,21.534014555507966
1928.2633,15.213100081984166
1929.8832,22.99155494512638
1931.5023,22.419364837140506
1933.1207,25.74651522031698
1934.7383,22.772991332752625
1936.3552,20.74877815507915
1937.9714,21.623860440198442
1939.5868,25.598222733524494
1941.2015,23.92184936423284
1942.8154,27.994724405516834
1944.4286,29.06683169135134
1946.041,29.688154775764033
1947.6528,28.008676922114375
1949.2637,21.778381096880267
1950.8739,20.697249986452903
1952.4834,18.365266059439676
1954.0921,23.382411577475565
1955.7001,20.048668618542948
1957.3074,17.51401902680017
1958.9139,10.878444445918873
1960.5197,15.241926344430581
1962.1247,18.604446082082404
1963.729,21.215984866202177
1965.3325,17.426523718073327
1966.9353,15.286043446819534
1968.5374,15.594524687299298
1970.1387,18.701947921510765
1971.7393,16.258293475506775
1973.3392,13.663541488320874
1974.9383,15.417671936403721
1976.5366,10.670664659570576
1978.1342,9.57249934346001
1979.7311,10.373155567004034
1981.3273,11.672612813409685
1982.9227,6.6208504621524895
1984.5173,9.767847775981792
1986.1112,11.413583951438511
1987.7044,15.008038087385103
1989.2968,12.801189168548191
1990.8885,12.093016029574187
1992.4795,9.13349737709757
1994.0697,6.322611796822741
1995.6592,11.81033778311918
1997.2479,8.896653767130275
1998.8359,9.23153806189606
2000.4232,6.914968891490076
2002.0097,4.946924387670478
2003.5955,2.7273826130458048
2005.1805,4.5063215807553405
2006.7648,6.133719276664607
2008.3484,5.059553641576002
2009.9312,-0.06619744504530445
2011.5133,-0.6435561543295876
2013.0946,2.4774560039052176
2014.6752,5.746823948967119
2016.2551,9.964532575389612
2017.8342,7.080566720237925
2019.4126,5.844911120931954
2020.9902,0.9575504440859675
2022.5672,1.6184692978651896
2024.1433,2.2776522808593427
2025.7188,-0.6149160245264227
2027.2935,-0.7592510586635228
2028.8674,0.044637881087723486
2030.4406,3.146749082285041
2032.0131,0.24708083203977083
2033.5849,-1.6043686140041444
2035.1559,1.642398997326353
2036.7261,5.937397946846787
2038.2957,11.980642498948725
2039.8645,10.372146858649856
2041.4325,10.061925111161443
2042.9998,5.599991237973342
2044.5664,2.7363591199560915
2046.1323,4.17104258198043
2047.6974,0.5040554215535167
2049.2617,3.6854113944721547
2050.8254,2.9151242514925997
2052.3883,7.193207706516972
2053.9504,9.219675444296215
2055.5118,11.044541077649171
2057.0725,8.217818127197987
2058.6325,1.2895200031194776
2060.1917,2.8596600334122684
2061.7502,1.5782515331797669
2063.3079,4.445307788928787
2064.8649,3.510842071383408
2066.4212,6.174867606814715
2067.9767,7.83739758638545
2069.5315,5.598445139509636
2071.0856,7.258023317227369
2072.6389,6.266145114594337
2074.1915,6.022823454085966
2075.7433,4.478071195516279
2077.2945,3.281901138471113
2078.8448,9.28432603775559
2080.3945,7.385358615355841
2081.9434,8.235011500414757
2083.4916,11.733297248221717
2085.039,12.680228331715966
2086.5857,16.725817106503854
2088.1317,14.27007580138951
2089.677,19.81301647791892
2091.2215,16.154651054937318
2092.7652,17.944991253159884
2094.3083,18.834048631755238
2095.8506,16.871834570442147
2097.3921,13.658360260598968
2098.933,12.143636724885766
2100.4731,10.027674849378997
2102.0124,15.110485398718879
2103.5511,14.642079037268843
2105.089,12.072466278287578
2106.6261,12.801657488612989
2108.1626,7.329662914358337
2109.6983,12.306492673620383
2111.2332,9.882156811199266
2112.7675,11.356665248830225
2114.301,12.430027809426981
2115.8337,14.30225420233662
2117.3657,15.62335401260605
2118.897,12.743336682259546
2120.4276,9.662211497087945
2121.9575,14.929987615448717
2123.4866,12.846674099077283
2125.0149,12.81227986040917
2126.5426,7.526813683413273
2128.0695,2.5902842239356545
2129.5956,1.7527000625543394
2131.1211,6.614069753944513
2132.6458,4.6744018352544146
2134.1698,9.333704777491583
2135.693,12.64198700491957
2137.2155,12.349256848464918
2138.7373,12.205522512634325
2140.2584,7.110792078441875
2141.7787,1.965073504846508
2143.2983,4.118374679699215
2144.8171,1.6707034712002766
2146.3353,2.622067706366259
2147.8527,8.022475195506736
2149.3693,12.321933722710611
2150.8853,12.720450991842135
2152.4005,11.618034583546262
2153.9149,14.314691951263505
2155.4287,9.660430432254032
2156.9417,10.855257220631167
2158.454,3.5491794139039
2159.9655,3.042204001028736
2161.4764,5.234337935470457
2162.9865,5.375588140271745
2164.4958,6.71596148613196
2166.0045,7.055464789994581
2167.5124,8.694104801643483
2169.0195,10.381888200307934
2170.526,10.068821578276157
2172.0317,7.404911424017534
2173.5367,9.490164125313221
2175.0409,6.024585995895293
2176.5445,10.65818325459427
2178.0473,10.04096205999479
2179.5494,10.02292846409972
2181.0507,11.704088418502351
2182.5513,4.434447774566657
2184.0512,12.014012266615744
2185.5504,6.542787584628307
2187.0488,6.820779298442879
2188.5465,3.547992912470228
2190.0435,9.924433862913325
2191.5397,8.250107550495272
2193.0353,8.675019276694783
2194.5301,12.249174260489546
2196.0241,14.37257763410706
2197.5175,15.195234407283124
2199.0101,13.267149446027794
2200.502,8.788327464398833
2201.9931,5.708773043782529
2203.4835,1.6784906776819213
2204.9733,2.547484802512308
2206.4622,4.215759837904152
2207.9505,4.683320178013062
2209.438,2.3501701748371175
2210.9248,4.316314133541226
2212.4109,8.131756335788616
2213.8962,11.346501020079415
2215.3809,10.660552343596244
2216.8648,13.623914350056708
2218.3479,14.386590976572947
2219.8304,14.698586024017942
2221.3121,15.40990314939883
2222.7931,13.920545862736908
2224.2733,9.730517519954432
2225.7529,10.889821337768261
2227.2317,6.298460435590066
2228.7098,3.306437823933315
2230.1872,4.013756450326937
2231.6638,2.2704192292355216
2233.1397,3.4764290349860616
2234.6149,1.9817887192014112
2236.0894,2.9865010987401845
2237.5632,3.7405689706431176
2239.0362,7.743995102085975
2240.5085,6.99678222283886
2241.9801,9.298932985231922
2243.4509,10.25044997162751
2244.921,12.051335671398675
2246.3904,12.801592471413983
2247.8591,11.15122263802872
2249.3271,6.100228309582249
2250.7943,8.248611512901732
2252.2608,8.44637421381207
2253.7266,8.993518295652052
2255.1917,7.44004555729677
2256.656,5.585957707686113
2258.1197,3.181256381359546
2259.5826,6.875943156997003
2261.0447,4.270019581465917
2262.5062,8.413487132874309
2263.9669,8.356347246630037
2265.4269,6.498601274006084
2266.8862,10.290250482712004
2268.3448,6.831296075471322
2269.8026,3.2217391521050587
2271.2598,2.4615807441213136
2272.7162,5.650821850810772
2274.1719,4.739463446848319
2275.6268,10.07750645040062
2277.0811,10.614951732239767
2278.5346,4.451800062362842
2279.9874,4.588052104617397
2281.4395,2.0737084783330317
2282.8908,-0.9412302430411614
2284.3414,3.3932364932068495
2285.7914,7.9771186426792084
2287.2406,8.960426127045686
2288.689,12.29316878820488
2290.1368,16.17535637845119
2291.5838,10.256998527147324
2293.0302,17.788104701902427
2294.4758,9.918684267755687
2295.9206,3.798746411865281
2297.3648,4.878300222202569
2298.8082,8.607354748751469
2300.251,9.785918992712908
2301.693,9.014001869214361
2303.1343,8.091612195524078
2304.5748,5.368758698770357
2306.0147,4.545450025165394
2307.4538,0.5716947672338222
2308.8922,0.5475014720457381
2310.3299,4.722878680954381
2311.7669,4.34783492983798
2313.2031,5.722378707346003
2314.6387,7.846518458649605
2316.0735,7.020262571696087
2317.5076,2.0436193559676212
2318.941,7.866597050743785
2320.3737,13.089203874867984
2321.8056,10.06144796851764
2323.2369,7.233337340978139
2324.6674,9.954879900920425
2326.0972,14.426083484682053
2327.5263,14.84695582905183
2328.9547,18.2675045265577
2330.3823,18.137737021258133
2331.8092,20.85766057453654
2333.2355,9.677282266398954
2334.661,11.596608968274886
2336.0858,6.915647454821034
2337.5098,7.184404384728026
2338.9332,8.602886347530024
2340.3558,3.521099860917154
2341.7778,3.689051356550678
2343.199,7.106747230880892
2344.6195,2.6241938434675873
2346.0393,6.091397482803167
2347.4583,8.058364411138065
2348.8767,5.725100829808795
2350.2943,11.791612859568254
2351.7113,8.157906563918303
2353.1275,11.77398788844468
2354.543,10.48986269715411
2355.9578,10.35553673631346
2357.3718,8.771015647290987
2358.7852,3.386304967899612
2360.1978,4.401410148242114
2361.6098,6.016336604558212
2363.021,7.9810897090735935
2364.4315,9.395674773850594
2365.8413,4.71009703114067
2367.2504,4.87436161923857
2368.6587,4.038473629338114
2370.0664,4.45243810388952
2371.4733,9.366260044958345
2372.8795,6.6799444100857315
2374.285,6.443496063150278
2375.6899,5.556919801231132
2377.0939,8.220220356972547
2378.4973,7.983402407449603
2379.9,5.19647054753522
2381.3019,10.309429292268327
2382.7032,9.12228310472311
2384.1037,4.885036344879516
2385.5035,2.1976932814946437
2386.9027,0.5602581344752551
2388.3011,4.272735101751223
2389.6987,5.285128375649883
2391.0957,4.797442105771225
2392.492,5.909680388863954
2393.8876,5.9718472737024015
2395.2824,9.983946749964076
2396.6765,6.595982747608062
2398.07,10.40795909675397
2399.4627,13.91987956156165
2400.8547,14.081747802111337
2402.246,9.14356733928453
2403.6366,10.20534155314526
2405.0265,8.867073732321899
2406.4156,2.4287670633894294
2407.8041,8.590424644252131
2409.1918,9.45204954852666
2410.5789,10.113644763925443
2411.9652,12.625213183640447
2413.3508,10.386757599727218
2414.7358,9.44828067798921
2416.12,10.259784980362312
2417.5035,7.421272974299654
2418.8863,8.782747024656537
2420.2684,10.344209422075537
2421.6497,12.40566236937181
2423.0304,8.617107965918436
2424.4104,8.628548187031889
2425.7896,7.739984921857584
2427.1682,7.101419973255425
2428.546,7.762855066685539
2429.9232,7.624291856593828
2431.2996,10.435731919797682
2432.6753,9.847176756871605
2434.0503,7.608627764032775
2435.4246,10.77008623902664
2436.7982,8.581553403512387
2438.1711,8.693030371448351
2439.5433,8.20451817097738
2440.9148,6.2660177433120126
2442.2856,5.877529947619664
2443.6557,7.539055580407592
2445.025,7.85059537940775
2446.3937,5.412150006961561
2447.7617,7.223720046904482
2449.1289,7.935306028950535
2450.4955,5.246908410576552
2451.8613,6.858527569906286
2453.2265,4.320163832594474
2454.5909,4.931817455710565
2455.9546,5.293488653122402
2457.3177,4.405177589379704
2458.68,6.266884376097309
2460.0416,7.328609080838291
2461.4025,1.2903517084969067
2462.7627,5.252112190681316
2464.1222,2.56389044609616
2465.4811,2.0256863409249917
2466.8392,2.387499715712444
2468.1966,4.49933039074633
2469.5533,2.9611781624394453
2470.9093,4.523042782211299
2472.2645,7.184923971869637
2473.6191,4.046821407991764
2474.973,4.058734695305773
2476.3262,3.3706633980715424
2477.6787,7.3326070399616015
2479.0305,6.9945651109418705
2480.3816,6.556537027652233
2481.7319,1.1185221367869573
2483.0816,5.6805197194749795
2484.4306,1.8925290456600337
2485.7789,2.054549328480661
2487.1264,0.0165797621501369
2488.4733,1.8286195203362396
2489.8195,2.6906677765409768
2491.165,1.6527236859801988
2492.5097,0.41478637696309306
2493.8538,5.726854961271627
2495.1972,2.3389285465399325
2496.5398,5.301006183133602
2497.8818,4.613086898028918
2499.2231,7.725169665192141
2500.5637,4.187253412458659
2501.9035,6.949336990412206
2503.2427,3.161419207763963
2504.5812,2.8234988037317734
2505.919,4.985574485919329
2507.256,4.947644933695322
2508.5924,4.059708776572727
2509.9281,3.9217645945880903
2511.2631,6.833810927180856
2512.5974,2.045846274572895
2513.9309,5.607869068647929
2515.2638,4.719877720831249
2516.596,5.5318705864694735
2517.9275,3.3438459737104935
2519.2583,5.705802135383472
2520.5884,5.817737290879158
2521.9178,4.2296496025303085
2523.2465,0.8415371744922737
2524.5745,0.7533980686239587
2525.9018,3.815230338368899
2527.2284,7.927032029636678
2528.5543,6.838801150184608
2529.8796,3.300535628499688
2531.2041,1.9622333246809234
2532.5279,1.5238920658219826
2533.851,1.6355096593941951
2535.1735,4.347083897630036
2536.4952,6.658612556406858
2537.8163,9.770093368131214
2539.1366,1.981523998623537
2540.4562,6.342902016003343
2541.7752,3.9542249685748914
2543.0935,3.2154903412134814
2544.411,3.07669557925216
2545.7279,7.237838095869101
2547.0441,7.748915273475539
2548.3596,8.559924422104359
2549.6744,3.3708627742992974
2550.9885,6.381727477004887
2552.3019,6.09251564345702
2553.6146,5.703224323074366
2554.9266,-0.5361494956495889
2556.2379,4.824391118746469
2557.5485,2.834848453857262
2558.8585,0.4952247490336461
2560.1677,8.655522215277976
2561.4762,5.615743058640376
2562.7841,4.325889398615772
2564.0913,4.185963298541672
2565.3977,7.4959667784966655
2566.7035,5.055901816699738
2568.0086,8.36577031641022
2569.313,5.125574130328445
2570.6167,8.935315027497076
2571.9197,7.294994725703042
2573.222,7.204614853380114
2574.5236,5.964176966012168
2575.8246,3.623682547036907
2577.1248,3.283133020250311
2578.4244,9.792529773211513
2579.7232,0.7018741606483516
2581.0214,6.3611674393633635
2582.3189,5.220410859140358
2583.6157,3.529605606151513
2584.9118,7.688752814364911
2586.2072,5.597853582452608
2587.5019,7.95690893219912
2588.7959,5.7659198294104925
2590.0893,8.02488716032368
2591.3819,6.78381175351646
2592.6739,6.892694357317794
2593.9652,8.45153565221851
2595.2557,5.210336249782529
2596.5456,4.019096677058421
2597.8348,8.877817408991426
2599.1234,4.6364988803358145
2600.4112,5.3951414370677355
2601.6983,3.9037453787983196
2602.9848,5.112310951187361
2604.2705,5.4708383608571935
2605.5556,5.079327763307084
2606.84,5.93777925932789
2608.1237,3.7961928989172122
2609.4067,5.804568672694899
2610.689,2.9129065333188464
2611.9707,6.07120637540131
2613.2516,5.72946806442549
2614.5319,7.037691405162512
2615.8115,7.19587614508886
2617.0903,8.604021961304099
2618.3685,2.7621284589490713
2619.6461,7.820195157124417
2620.9229,6.128221547309515
2622.199,2.7862070427817898
2623.4745,2.9441509955364893
2624.7493,4.702052729706779
2626.0234,7.2599115399843654
2627.2968,6.067726674040422
2628.5695,5.525497306947024
2629.8415,4.4832225530990115
2631.1128,6.840901471636272
2632.3835,6.548533076866491
2633.6535,2.1061163146883644
2634.9228,5.713650065515267
2636.1914,6.321133188699427
2637.4593,9.128564486456611
2638.7265,3.2859426977912563
2639.9931,2.593266470422172
2641.259,6.400534419208746
2642.5242,9.107745133077707
2643.7887,2.064897136950492
2645.0525,6.371988864671067
2646.3156,3.3790187294344562
2647.5781,5.485985080715821
2648.8398,5.192886234200131
2650.1009,4.999720450712545
2651.3613,4.956485939149367
2652.6211,4.113180858409752
2653.8801,5.369803317828016
2655.1385,5.4263513856067185
2656.3961,2.4828230762504013
2657.6531,4.089216350000122
2658.9094,7.445529142268676
2660.1651,3.8017593475767377
2661.42,3.8579047859896605
2662.6743,4.413963239555251
2663.9279,4.919932451742277
2665.1808,3.575810121879897
2666.433,5.731593900097948
2667.6846,2.037281400768183
2668.9354,4.24287018094644
2670.1856,2.1983577773157563
2671.4351,7.503741684130485
2672.6839,4.359019373661425
2673.9321,4.714188243141926
2675.1795,3.6192456462151803
2676.4263,2.87418888938247
2677.6724,4.579015242952654
2678.9179,2.2837219484926727
2680.1626,6.1883062017793655
2681.4067,6.242765175752332
2682.6501,4.797095981468132
2683.8928,8.251295667555663
2685.1348,1.2553612346728897
2686.3761,5.559289600964831
2687.6168,5.463077672022923
2688.8568,3.9667222978456955
2690.0961,7.370220273800914
2691.3348,4.92356835558914
2692.5727,6.726763225208739
2693.81,4.979801515422384
2695.0466,2.682679791725164
2696.2826,5.535394569814159
2697.5178,6.537942338559635
2698.7524,7.990319531477962
2699.9863,8.89252251670608
2701.2195,7.044547582477769
2702.452,9.296390928101577
2703.6839,6.398048682440585
2704.9151,5.399516881393996
2706.1456,6.650791496880512
2707.3755,5.951868446823706
2708.6046,7.502743582639226
2709.8331,6.0034126962240535
2711.0609,11.903871504447736
2712.2881,8.704115664145728
2713.5145,3.2041407131147785
2714.7403,7.7539421021105035
2715.9654,5.903515249847114
2717.1899,7.352855497499412
2718.4136,9.901958127207056
2719.6367,7.100818347581168
2720.8591,3.59943126821328
2722.0809,7.397791927686782
2723.3019,9.64589532859073
2724.5223,7.243736399536267
2725.7421,8.591309972675614
2726.9611,9.5386108077236
2728.1795,7.485633578482009
2729.3972,5.532372863366511
2730.6142,9.078823165936459
2731.8306,2.9249789344274824
2733.0462,6.470834526287003
2734.2612,4.216384269712673
2735.4756,4.5616224281938
2736.6892,4.206543223055881
2737.9022,5.101140830008184
2739.1145,7.995409382694579
2740.3262,3.489342963747518
2741.5372,6.132935575845384
2742.7475,4.926181186773139
2743.9571,5.769073702986411
2745.1661,7.11160698167901
2746.3744,4.3037748223540575
2747.582,5.045570953398602
2748.7889,5.836989060161969
2749.9952,4.778022777537785
2751.2008,9.418665682049802
2752.4057,2.4089113024415383
2753.61,3.6987530732698914
2754.8136,6.288184405002642
2756.0165,1.1771986711200704
2757.2188,1.9657891822206182
2758.4204,5.003949237130755
2759.6213,1.0916721150190583
2760.8215,9.828951045014655
2762.0211,3.4657792453299514
2763.22,8.452149835887873
2764.4182,4.33805590195356
2765.6158,2.573490444270657
2766.8127,1.7584464202022865
2768.009,3.9429167613766865
2769.2045,-0.07310561816236572
2770.3994,5.010372156199768
2771.5936,2.0933436894028183
2772.7872,1.92580253628282
2773.9801,3.357742230742385
2775.1723,3.439156287426105
2776.3639,4.020038187401166
2777.5548,2.9503813773431915
2778.745,4.130179263727449
2779.9346,-1.740574776474599
2781.1235,3.4881125924067398
2782.3117,3.9162520943831716
2783.4992,3.993854418585279
2784.6861,1.5709302149811428
2785.8723,4.997490093600309
2787.0579,4.573544648763029
2788.2428,1.449104424814653
2789.427,-0.7758200796348973
2790.6106,3.4487816195332712
2791.7935,1.2229277568806367
2792.9757,2.946636532480859
2794.1573,2.8699261341783284
2795.3382,3.642814720351094
2796.5184,4.165320420677954
2797.698,3.0874613284095638
2798.8769,1.0592554951433826
2800.0551,2.2807209416022687
2801.2327,2.3018756779165415
2802.4096,4.372737691409313
2803.5859,2.9933249463849556
2804.7615,2.0636553634204695
2805.9364,4.033746833159636
2807.1106,1.0536172256096776
2808.2842,4.073284370440369
2809.4572,4.642766086785322
2810.6294,2.6620801530453377
2811.801,3.081244301193564
2812.972,2.3502762365823706
2814.1423,2.719193633751704
2815.3119,5.488014143738777
2816.4808,1.1567553903888665
2817.6491,5.775434942667125
2818.8167,0.3940703579711773
2819.9837,4.912679135944295
2821.15,7.631278772289068
2822.3157,2.549886713581312
2823.4807,6.218520330084086
2824.645,6.837196966561599
2825.8086,5.705933905592868
2826.9716,4.92474836138496
2828.134,3.8436574910856116
2829.2957,4.712678402595074
2830.4567,6.831828165377068
2831.617,5.951123801768517
2832.7767,9.87058226578809
2833.9358,6.740220451943234
2835.0941,6.26005515603557
2836.2519,5.580103106464531
2837.4089,5.450380969029027
2838.5653,10.02090535372691
2839.7211,8.091692816052259
2840.8761,10.312759811290054
2842.0306,11.484122713808393
2843.1843,10.055797794847749
2844.3374,12.327801210807444
2845.4899,12.700149017528798
2846.6417,11.722857147575148
2847.7928,11.245941406508361
2848.9433,10.369417482661731
2850.0931,11.193300951909169
2851.2422,12.967607286430425
2852.3907,13.392351846472234
2853.5385,12.317549862605262
2854.6857,14.84321643147667
2855.8323,16.869366526558135
2856.9781,14.89601497288919
2858.1233,14.923176426815719
2859.2679,18.850865395723474
2860.4118,17.679096237766423
2861.555,22.557883122589928
2862.6976,24.787240043048364
2863.8395,24.617180766417313
2864.9808,25.297718812099934
2866.1214,25.17886745332763
2867.2614,27.060639710354604
2868.4007,24.993048351646404
2869.5393,28.776105875062207
2870.6773,33.40982452853073
2871.8146,35.344216272219626
2872.9513,32.279292732198336
2874.0874,37.31506518109414
2875.2227,36.4515445687414
2876.3574,36.788741471823826
2877.4915,35.87666610250972
2878.6249,42.61532830507999
2879.7577,41.604737565048865
2880.8898,35.99490294177736
2882.0212,40.535833078579074
2883.152,36.32753625881862
2884.2821,38.77002036050229
2885.4116,37.863292898361024
2886.5405,33.607360999425566
2887.6686,34.8522314120937
2888.7962,34.84791054868968
2889.923,36.5944044730154
2891.0493,34.24171890039368
2892.1748,29.53985918020333
2893.2997,34.33883031940595
2894.424,29.638637029564567
2895.5476,28.63928367885391
2896.6706,32.79077433906234
2897.7929,26.843112795585405
2898.9145,28.546302505910923
2900.0355,26.150346659095593
2901.1559,24.5052481587331
2902.2756,27.461009646913656
2903.3946,28.017633520675034
2904.513,25.425121902444918
2905.6308,27.88347663447466
2906.7479,22.94269930476441
2907.8643,25.55279122247955
2908.9801,26.713753467358494
2910.0953,26.075586863611754
2911.2098,22.438291968312303
2912.3236,28.551869077777276
2913.4368,32.4663182639409
2914.5494,28.281639313218708
2915.6613,29.097831687363065
2916.7725,36.414894565309964
2917.8831,32.88282683501707
2918.9931,38.901627020293134
2920.1024,38.721293316118604
2921.211,37.841823528457724
2922.319,41.81321507606178
2923.4264,45.385464999263824
2924.5331,48.808569920264794
2925.6391,46.432526007410985
2926.7445,48.90732894096301
2927.8493,49.73297393685621
2928.9534,50.20945572195266
2930.0569,47.43676852578468
2931.1597,47.56490607579008
2932.2619,48.143861625038966
2933.3634,46.123627950952404
2934.4643,42.25419734951283
2935.5645,41.73556165546644
2936.6641,39.31771228101746
2937.763,35.05064022101448
2938.8613,31.684336077129025
2939.959,28.71879010052618
2941.056,29.953992225527703
2942.1523,28.739932099267453
2943.248,25.226599069339365
2944.3431,26.613982195938085
2945.4375,21.25207028699227
2946.5313,20.590851884290732
2947.6244,19.880315317101594
2948.7169,14.720448708784495
2949.8087,20.211239983895904
2950.8999,15.252676919787813
2951.9904,13.894747091699816
2953.0803,16.33743792234477
2954.1696,16.530736695488056
2955.2582,17.9746305315207
2956.3462,14.219106385526352
2957.4335,14.464151032842377
2958.5202,15.759751106615091
2959.6062,17.05589309534927
2960.6916,12.352563329952229
2961.7764,13.899747970772339
2962.8605,16.097433054632344
2963.9439,14.845604479357544
2965.0267,14.894247981798863
2966.1089,20.493349150351232
2967.1905,20.54289342446709
2968.2714,19.242866038665387
2969.3516,22.543252022036167
2970.4312,20.944036211240835
2971.5102,19.29520321750826
2972.5885,22.19673744262699
2973.6662,20.64862309543356
2974.7432,16.700844162797118
2975.8196,17.35338442510061
2976.8954,18.106227495718528
2977.9705,18.059356814491544
2979.045,19.062755640198052
2980.1188,17.0664070510229
2981.192,14.120293934523378
2982.2645,11.87439900759271
2983.3364,16.078704845921216
2984.4077,9.183193906455216
2985.4783,9.337848485353998
2986.5483,11.79265078694494
2987.6177,7.997582922176921
2988.6864,9.002626884072338
2989.7545,7.257764585677773
2990.8219,6.212977850013559
2991.8887,5.5182484275223835
2992.9548,7.873558006517186
2994.0204,10.628888220128417
2995.0852,6.984220622750964
2996.1495,6.289536662490828
2997.2131,4.094817717611807
2998.276,3.7500451034823463
2999.3383,3.555200094522702
3000.4,2.310263927652702
3001.4611,2.0652178042401736
3002.5215,3.420042902550307
3003.5812,1.424720380196133
3004.6404,5.579231360590262
3005.6989,2.4335569528980887
3006.7567,5.187678210492702
3007.8139,3.941576162411632
3008.8705,4.795231785815613
3009.9264,-0.10137398155036692
3010.9818,1.8517397501063666
3012.0364,2.9045548833045665
3013.0905,3.8070533020455724
3014.1439,-0.6407831387148004
3015.1966,0.811027377908724
3016.2487,2.4624730702249735
3017.3002,4.563542148432507
3018.3511,-0.08577720189484239
3019.4013,1.2645031591813414
3020.4509,1.5643722285137116
3021.4998,1.4638189903099086
3022.5481,1.8628324131338463
3023.5958,2.7614014509112668
3024.6428,1.5595150389395869
3025.6892,3.057162084902224
3026.735,0.3543314808874456
3027.7802,2.6510120884119086
3028.8247,0.14719276544897397
3029.8685,1.2428623434618853
3030.9118,1.3380096524419738
3031.9544,0.48262350995194225
3032.9963,2.776692720174406
3034.0376,2.0702060824657575
3035.0783,-0.13684763158453528
3036.1184,-0.7444796710890671
3037.1578,-0.35269991805258627
3038.1966,0.08848918287205443
3039.2348,1.0290887105041886
3040.2723,2.369099742778266
3041.3092,0.708523347337854
3042.3455,-0.1526394318644666
3043.3811,0.6856124420386536
3044.4161,3.0732815307824826
3045.4505,3.7603703892461695
3046.4842,3.1468815415760645
3047.5173,1.5828174743148118
3048.5498,0.9681806425362414
3049.5816,1.3529734854860287
3050.6128,2.7371984327280376
3051.6434,1.0708579002964118
3052.6734,-0.09604572314669113
3053.7027,0.3364899403523154
3054.7314,0.8684682282437741
3055.7594,-0.10010752538687484
3056.7868,3.0307660048611424
3057.8136,2.4110931444627575
3058.8398,1.6408781885852513
3059.8653,3.370125408284986
3060.8902,0.7988390582095359
3061.9145,3.4270233593052257
3062.9381,2.304682524529989
3063.9612,3.831820732571531
3064.9835,4.508442139070734
3066.0053,4.8845508613502755
3067.0264,0.31015097164841343
3068.0469,2.8352464933579054
3069.0668,4.059841446770003
3070.086,4.13393982382348
3071.1046,4.857545575858712
3072.1226,0.6306626128766677
3073.1399,1.653294796302868
3074.1567,1.5254459812562011
3075.1727,0.3971200063226217
3076.1882,4.618320694833622
3077.203,3.5390518661495047
3078.2173,5.559317293447364
3079.2308,3.0291207145137893
3080.2438,3.5484658115421936
3081.2561,0.7673562364347912
3082.2678,3.7857956056091417
3083.2789,3.7037875278092454
3084.2893,2.621335573921156
3085.2991,4.088443277793054
3086.3083,5.305114147059763
3087.3169,4.421351648471678
3088.3248,2.0371591957280586
3089.3321,0.9025401583146415
3090.3388,3.0174978853455787
3091.3449,4.432035716909631
3092.3503,1.9461569629205808
3093.3551,2.1098648889718525
3094.3593,3.423162741195311
3095.3629,3.0860537446241754
3096.3658,1.9985410900600442
3097.3681,0.4606279374439799
3098.3698,2.8723174267316374
3099.3708,2.6336126932724024
3100.3713,3.444516843692485
3101.3711,1.8550329582819725
3102.3702,6.9151640828857905
3103.3688,2.274913244798536
3104.3667,1.6842834021631656
3105.364,4.493277490373517
3106.3607,1.8518984279805935
3107.3568,3.760149088602632
3108.3522,4.418032327338879
3109.347,3.8755509616870993
3110.3412,2.082707764964735
3111.3348,2.789505471733726
3112.3277,3.8959467957289338
3113.32,3.2020344227901667
3114.3117,1.1077709997977738
3115.3028,1.3631591416117619
3116.2932,2.9682014520144353
3117.2831,3.2729005211565028
3118.2723,2.6772589095066666
3119.2608,3.881279144804628
3120.2488,4.684963728017506
3121.2361,2.2883151212996298
3122.2229,2.7413357399556917
3123.209,3.244027976407244
3124.1944,2.446394195662476
3125.1793,-0.10156326971069873
3126.1635,4.450157888391696
3127.1471,6.2515609926907
3128.1301,4.6526493214057725
3129.1125,4.353426090240766
3130.0942,3.0538944683730476
3131.0753,1.6040575814457227
3132.0558,1.3539185245629586
3133.0357,3.0034803767883487
3134.015,0.6527462036463083
3134.9936,2.501719040626453
3135.9716,3.6004019166909362
3136.949,1.2487978357847336
3137.9258,4.346909765848797
3138.902,2.9947406623361044
3139.8775,1.9922934372305425
3140.8524,3.039570972568594
3141.8267,2.5865761304638113
3142.8004,4.583311742634043
3143.7735,1.179780614931384
3144.7459,2.675985507374808
3145.7178,1.1719291681854855
3146.689,5.01761431882473
3147.6596,2.8630436690345693
3148.6295,4.0082198783808884
3149.5989,4.453145577799143
3150.5676,6.697823358142587
3151.5357,5.592255765733027
3152.5032,3.3864452799140308
3153.4701,4.830394324106615
3154.4364,3.624105287867345
3155.402,3.9175805124488416
3156.367,4.7108223028626774
3157.3315,3.753832924944618
3158.2952,4.896614597422211
3159.2584,2.089169501484678
3160.221,3.181499769355094
3161.1829,4.973607512364847
3162.1442,2.265494810030323
3163.105,5.257163692131845
3164.065,1.548616165794785
3165.0245,5.03985418557288
3165.9834,6.780879690533709
3166.9416,3.071694569346308
3167.8993,4.96230064287092
3168.8563,3.5526997012508437
3169.8127,2.542893485006373
3170.7684,4.832883699130806
3171.7236,5.0726720231885105
3172.6782,4.512260088415022
3173.6321,1.6016494753191548
3174.5854,3.590841719287119
3175.5381,4.8298383396886395
3176.4902,6.268640819985018
3177.4417,6.25725059533918
3178.3926,4.245669038227633
3179.3428,5.633897458554394
3180.2924,6.721937123766786
3181.2415,4.359789244973161
3182.1899,3.897454966062506
3183.1377,5.184935387325915
3184.0848,3.472231570079935
3185.0314,3.9093445237917654
3185.9773,4.796275223206285
3186.9227,5.233024603974933
3187.8674,5.169593553786393
3188.8115,3.555982907999108
3189.755,5.342193450275585
3190.6979,3.878225928718497
3191.6402,-0.335918961991414
3192.5818,5.549759434044337
3193.5229,2.2852651285546663
3194.4633,3.620602077770892
3195.4031,4.255774215071684
3196.3423,6.590785437629691
3197.2809,5.575639600059825
3198.2189,6.660340491069144
3199.1563,3.394891843608314
3200.0931,5.529297324024595
3201.0292,3.7635605647163293
3201.9648,4.347685142788898
3202.8997,2.881674597712073
3203.834,6.7655324254787725
3204.7677,3.799262093265175
3205.7008,4.082867000592133
3206.6333,5.266350508987882
3207.5652,3.799715939151987
3208.4964,3.982966559120509
3209.4271,2.91610559893235
3210.3571,3.199136248796752
3211.2865,4.232061669761901
3212.2154,7.214884990884622
3213.1436,1.2476092989011218
3214.0712,8.13023760839876
3214.9982,5.812772921488801
3215.9246,3.745218158980133
3216.8503,4.077576183553926
3217.7755,2.4598498204391674
3218.7001,1.592041854089083
3219.624,4.474155044358396
3220.5473,6.256192135181415
3221.4701,5.638155825750896
3222.3922,3.4700487526976778
3223.3137,5.951873496271036
3224.2346,4.633632602019758
3225.1549,4.515328555973911
3226.0746,4.696963797827234
3226.9937,4.478540722120187
3227.9121,2.160061676423602
3228.83,2.8415289635229026
3229.7473,4.772944864602906
3230.6639,7.3543116324331335
3231.5799,4.535631472053663
3232.4954,5.716906514961459
3233.4102,4.3981388472971705
3234.3244,5.079330498032383
3235.238,6.960483452157293
3236.151,4.441599643868795
3237.0634,6.222680937758949
3237.9752,2.80372915400382
3238.8864,7.5847460505526625
3239.797,5.465733357317442
3240.7069,4.5966927283626635
3241.6163,4.727625763095498
3242.5251,5.25853401495619
3243.4332,6.139418990108731
3244.3408,4.820282142131765
3245.2477,1.0011248632097542
3246.154,6.7819484973243345
3247.0598,3.4127543784458974
3247.9649,4.843543772725351
3248.8694,4.874317912186058
3249.7733,1.8050779804159454
3250.6766,8.935825112259762
3251.5793,3.71656042451148
3252.4814,6.847284944606816
3253.3829,3.9279996628158855
3254.2838,3.8587055009359563
3255.1841,4.989403341484299
3256.0838,2.17009402839113
3256.9829,3.4507783556926332
3257.8814,6.281457095724053
3258.7792,5.012130986312851
3259.6765,4.392800702471919
3260.5731,5.623466869092839
3261.4692,7.204130067139186
3262.3647,6.034790821339868
3263.2595,4.115449584382491
3264.1538,6.5461067486067535
3265.0474,2.52676266519786
3265.9404,4.157417619879947
3266.8329,4.188071873109524
3267.7247,3.6687256437689246
3268.616,6.3493791088597655
3269.5066,3.080032408696406
3270.3966,0.36068562009941385
3271.286,4.241338789089034
