RamanShift,CorrectedData
30.1047,6963.239583361772
32.3739,6505.581680483948
34.6426,6056.723707973727
36.9109,5599.3655311428965
39.1787,5151.406954736007
41.4461,4701.647727503949
43.7131,4255.237546683543
45.9796,3805.076062495132
48.2456,3365.4128826066794
50.5112,2909.397576635382
52.7764,2467.47968054431
55.0411,2031.9587012025556
57.3054,1584.8841208044128
59.5692,1145.255401224588
61.8326,712.0719884889461
64.0955,279.28331717079783
66.3579,-143.0611852772662
68.6199,-556.2120941954879
70.8815,-942.6185557428694
73.1426,-1214.9241595195908
75.4032,-1194.4130783664637
77.6634,-405.5573480319463
79.9231,2225.732927922154
82.1824,8906.701697451936
84.4412,24447.242886256172
86.6995,51266.85033096661
88.9574,59468.067623742594
91.2148,58981.48784407493
93.4717,58492.80347677379
95.7282,58017.60641683444
97.9842,57545.03797432411
100.2398,57079.68887913399
102.4949,56614.04928570488
104.7495,56150.8087776807
107.0036,55681.156372564896
109.2573,55222.5305263528
111.5105,54757.169138228215
113.7632,54293.80955514964
116.0154,53819.93857650386
118.2672,53370.19245873962
120.5185,52908.65692010624
122.7693,52451.567145151144
125.0197,51987.00778933518
127.2696,51530.41298360351
129.519,51069.61633903125
131.7679,50611.80095138938
134.0163,50154.649405752716
136.2642,49701.59378107809
138.5117,49246.66565477582
140.7587,48790.34610724032
143.0052,48342.06572639935
145.2512,47896.1546122772
147.4967,47448.54238147749
149.7417,47001.30817164235
151.9863,46551.28064592843
154.2304,46106.13799747935
156.4739,45657.80795392592
158.717,45217.16778183756
160.9596,44772.89429120562
163.2017,44336.613839849786
165.4433,43899.40233786078
167.6844,43466.485251963226
169.925,43031.6376098877
172.1651,42597.23400469996
174.4047,42168.04859914936
176.6439,41734.755130012956
178.8825,41303.52691238727
181.1206,40869.98684402135
183.3582,40444.40740962887
185.5954,40023.36068522373
187.832,39597.168342375735
190.0681,39173.45165242111
192.3037,38753.6314907244
194.5388,38336.77834091567
196.7734,37917.51229908868
199.0075,37499.003077969406
201.2411,37090.32001110873
203.4742,36681.482057067515
205.7068,36272.25780350345
207.9389,35871.815471259404
210.1704,35468.77291845568
212.4015,35058.39764449448
214.632,34662.35679409023
216.862,34276.76716137345
219.0915,33885.845193851084
221.3205,33495.25699626241
223.549,33105.01833448827
225.777,32714.994639456934
228.0044,32326.851011046496
230.2314,31948.302221985134
232.4578,31560.962721732525
234.6837,31172.89664026533
236.909,30788.21779195062
239.1339,30384.639679426524
241.3582,30030.27549744901
243.582,29621.88813692767
245.8053,29268.140188469355
248.0281,28906.943946462008
250.2503,28529.96141261218
252.472,28159.75429955702
254.6932,27797.88403463405
256.9139,27434.461763583306
259.134,27076.248354165968
261.3536,26718.404399798615
263.5727,26358.440223135367
265.7912,26012.065879646318
268.0092,25663.29116121718
270.2267,25314.375599613006
272.4436,24966.428469965977
274.6601,24620.2087942645
276.8759,24284.325344832738
279.0913,23941.836647792756
281.3061,23606.150986423396
283.5204,23266.67640458516
285.7341,22930.120710077063
287.9473,22592.341478031347
290.16,22265.14605427909
292.3721,21950.341558727945
294.5837,21622.88488863416
296.7947,21309.2827217506
299.0052,20990.291519601305
301.2152,20666.567530617525
303.4246,20362.116793327616
305.6334,20049.745139594277
307.8418,19739.308197659084
310.0495,19429.76139526625
312.2568,19125.259962766904
314.4635,18819.608936214565
316.6696,18521.06316041021
318.8752,18221.627291958728
321.0802,17928.755802254374
323.2847,17633.152980475184
325.4887,17346.672936511663
327.692,17059.16960392282
329.8949,16774.146742800927
332.0972,16487.2079426466
334.2989,16204.306625218975
336.5001,15923.04604740515
338.7007,15652.679304049147
340.9008,15375.609330764564
343.1003,15104.83890663823
345.2992,14837.770657000903
347.4976,14566.907056134994
349.6955,14302.200429945253
351.8927,14040.052958667351
354.0895,13768.316679515003
356.2856,13526.393489301423
358.4812,13268.535147156697
360.6763,13015.543276947006
362.8707,12769.319369853198
365.0646,12522.914786900736
367.258,12276.230761421866
369.4508,12029.618401519765
371.643,11795.9286925353
373.8346,11552.112499513176
376.0257,11314.020569538821
378.2162,11082.703534176551
380.4062,10852.461911850514
382.5956,10622.04611015784
384.7844,10401.3564281711
386.9726,10177.543058742398
389.1603,9958.906090710334
391.3474,9702.895511138115
393.5339,9527.061207499923
395.7199,9318.15297024104
397.9052,9110.320494536121
400.09,8908.16338237832
402.2743,8701.881144657615
404.4579,8499.67320318237
406.641,8299.988892742193
408.8235,8099.327463129965
411.0054,7903.48808113877
413.1868,7707.619832568453
415.3675,7512.571724184003
417.5477,7324.39268567424
419.7273,7140.531571602311
421.9064,6949.687163287475
424.0848,6770.158170643677
426.2627,6591.393234088027
428.4399,6412.240926336039
430.6166,6231.349754189308
432.7928,6061.418160327063
434.9683,5898.094525115019
437.1432,5727.327168304808
439.3176,5572.01435066713
441.4914,5413.504275699437
443.6645,5246.545091179105
445.8371,5085.234890748463
448.0091,4934.621715584457
450.1806,4782.203556011744
452.3514,4638.028353008791
454.5216,4483.343999732082
456.6913,4338.598342957826
458.8603,4197.9391846288345
461.0288,4064.3142833019374
463.1967,3921.7213555545823
465.3639,3785.208077321113
467.5306,3650.622085318675
469.6967,3525.2609784123633
471.8622,3399.1223189610537
474.0271,3267.3036340710532
476.1914,3137.6024168574513
478.3551,3014.666127762386
480.5182,2900.3921958519786
482.6807,2792.9780200457244
484.8426,2685.3209702592285
487.0039,2564.6683884783633
489.1647,2447.4675898357964
491.3248,2338.865863817533
493.4843,2237.210475434913
495.6432,2137.5986663106814
497.8015,2024.1276556955345
499.9592,1930.3446414641658
502.1163,1833.546801250057
504.2728,1744.3312933832203
506.4287,1663.045257858248
508.5839,1573.3358172264052
510.7386,1479.8000774085303
512.8927,1386.7351285920813
515.0461,1316.1880461665423
517.199,1226.6058916541224
519.3512,1151.0857134152102
521.5029,1074.0245475441625
523.6539,1004.6194186245339
525.8043,934.4673404996356
527.9541,865.8653169666431
530.1033,798.110342478074
532.2519,740.0994028278437
534.3999,675.579475828803
536.5472,620.697531892838
538.694,570.7505346760518
540.8401,512.8354416276416
542.9856,445.24350839889667
545.1305,394.86086741506733
547.2748,343.1692031187049
549.4185,300.1462552922603
551.5615,255.56633545782825
553.704,217.70075667638594
555.8458,184.56827890115528
557.987,148.03548725484143
560.1276,110.86712302300293
562.2675,80.72644861669687
564.4069,47.52561888434866
566.5456,25.325982217182172
568.6837,-0.3615877745542093
570.8212,-24.07647048720537
572.958,-47.908041704846255
575.0942,-63.84543668766855
577.2299,-81.32731209456688
579.3648,-87.34168676860281
581.4992,-98.07576709297427
583.6329,-108.41588690745994
585.766,-124.79740027499793
587.8985,-140.00457818394352
590.0304,-172.7204448966222
592.1616,-176.5266260297576
594.2922,-187.00302172281226
596.4222,-191.57776861426828
598.5515,-196.67713518242817
600.6802,-200.32547604370484
602.8083,-196.34518100999412
604.9358,-195.00663864171656
607.0626,-200.17827601097815
609.1888,-200.12657207362645
611.3144,-197.21600600455713
613.4393,-190.05905771423568
615.5636,-180.3162369253041
617.6873,-171.1961546704697
619.8103,-163.50562062326935
621.9327,-146.0997342076589
624.0544,-127.33359321251919
626.1756,-119.21229396566196
628.2961,-106.19093152150162
630.4159,-91.12459974231024
632.5351,-71.618391428412
634.6537,-57.17739846881159
636.7716,-43.70671203632082
638.8889,-23.561422731989296
641.0056,-2.4466207197037875
643.1216,25.982604072254617
645.237,49.52116174012917
647.3518,85.81396212033724
649.4659,113.85591455413669
651.5793,142.99192752468662
653.6922,168.31690837658243
655.8043,197.67576302454836
657.9159,232.01339570013806
660.0268,261.12470865817886
662.137,291.2046018333931
664.2466,321.3479725492434
666.3556,362.0497152171665
668.4639,401.90472103512
670.5716,449.10787758061633
672.6786,475.65406841213553
674.785,514.8881725970859
676.8907,564.2550644463408
678.9958,613.7496131219668
681.1002,649.0166821434977
683.204,683.9511288930225
685.3072,737.0978042624847
687.4097,783.3515523043316
689.5115,828.9072097001117
691.6127,888.1096052979192
693.7132,936.7535596567395
695.8131,967.9338844544473
697.9123,1037.3453820014183
700.0109,1090.9328449287277
702.1089,1137.4410554939968
704.2061,1196.3147850455716
706.3028,1257.0487935574056
708.3987,1316.6878290402892
710.4941,1374.1766269345317
712.5887,1446.7099095136
714.6827,1492.082385309157
716.7761,1573.1887483858154
718.8688,1629.6236778873645
720.9608,1688.5318372257461
723.0522,1745.1578735166986
725.1429,1811.0964169906365
727.233,1893.4420804264155
729.3224,1884.1894584919428
731.4112,2014.7331269207061
733.4993,2084.167642604363
735.5867,2157.0375422872457
737.6735,2178.8373418720585
739.7596,2207.5615356911367
741.845,2274.004596288476
743.9298,2435.0109741324923
746.014,2418.6250969515895
748.0974,2413.741368124116
750.1802,2615.454166842166
752.2624,2538.8078481604825
754.3439,2647.996740979288
756.4247,2778.8151488107615
758.5048,2793.257348687119
760.5843,2918.6675898524336
762.6631,3049.990093618275
764.7413,3125.5690521095676
766.8188,3228.748626951332
768.8956,3391.1729485129254
770.9718,3470.43611487624
773.0473,3530.932190211446
775.1221,3477.3552039843707
777.1962,3556.1991503515164
779.2697,3374.8579886958687
781.3426,3673.2756428384528
783.4147,3849.4960028517526
785.4862,3949.1129220754956
787.557,3761.37021535448
789.6271,4091.46165804239
791.6966,3916.4809878792075
793.7654,3352.4719016903327
795.8335,3508.928057136378
797.901,3750.693078353259
799.9678,3517.7605543876416
802.0339,3497.6240367792852
804.0993,3674.1770418903834
806.1641,3504.3630511069787
808.2282,3426.0255090733044
810.2916,3291.6578253900007
812.3544,3913.453375397454
814.4164,3081.0055015195103
816.4778,3250.3075070454943
818.5385,3418.8026644548227
820.5986,3444.1842137238054
822.658,3628.3953606407667
824.7166,3773.079276552249
826.7747,3064.479096520845
828.832,3525.2379178783885
830.8886,4074.7988073119195
832.9446,4197.904796256182
834.9999,3113.1488753979356
837.0545,3898.823993444872
839.1085,4497.523067973256
841.1618,4301.738977571105
843.2143,3547.314555851277
845.2662,3639.442593409214
847.3175,4022.615845367247
849.368,3009.127030453332
851.4179,3935.3188271692125
853.467,3272.7338839254226
855.5155,3696.1148097792684
857.5633,3062.4541810607625
859.6105,2807.494537138795
861.6569,3337.678386757725
863.7027,2647.498210586986
865.7478,3002.2464559191794
867.7922,2915.215543571976
869.8359,3577.7978643406677
871.8789,2801.3357798683865
873.9212,3485.4216160203214
875.9629,3685.3976706483663
878.0039,3754.3062067501523
880.0441,3574.4894504693875
882.0837,3636.489590406716
884.1226,3644.798779417906
886.1609,3590.5591339938765
888.1984,3244.512734177588
890.2352,3901.551624106418
892.2714,3130.4678154726425
894.3069,3512.6532809530836
896.3416,3260.8499619198774
898.3757,3265.3997646186835
900.4091,2588.8945626867135
902.4418,3636.626197107238
904.4739,3092.236482974615
906.5052,3345.117199016968
908.5358,3028.9100930401037
910.5658,2718.4068793986808
912.595,2796.49924215825
914.6236,2239.7288382003026
916.6515,3346.037296441398
918.6786,2272.8162234007686
920.7051,2631.5071921372873
922.7309,2740.401752981692
924.756,3027.8914299496682
926.7804,2798.517719652911
928.8041,2299.2720884242517
930.8272,2701.8959746113687
932.8495,2671.33079356925
934.8711,2295.4679336339686
936.892,2064.4987564283365
938.9123,2051.5646006204915
940.9318,1825.8067842336677
942.9506,1713.7666047753955
944.9688,1768.9353414951984
946.9862,1277.5542565049473
949.003,1505.5645942272386
951.019,1127.757586309097
953.0344,1312.7744493419596
955.0491,1356.506388639682
957.063,1612.3945963884398
959.0763,1797.9302512093564
961.0888,1652.504515599634
963.1007,1981.0085340771693
965.1119,2052.533434634868
967.1223,1934.7203254555861
969.1321,2266.6602941968595
971.1412,2019.4944091690559
973.1495,1974.2637160159575
975.1572,2077.6592401864546
977.1641,2179.4219873868133
979.1704,2113.2929425467373
981.1759,2145.8130688016827
983.1808,2198.8733081542305
985.1849,2300.6145811488022
987.1884,2479.8277863411204
989.1911,2808.7037992808255
991.1932,2691.4334707193048
993.1945,2744.8576233209096
995.1951,2739.267052835741
997.1951,2696.402527565311
999.1943,2573.654788418491
1001.1928,2479.714549340126
1003.1906,2459.572498538524
1005.1877,2390.919299424917
1007.1841,2155.34559081481
1009.1798,2086.5419876145606
1011.1748,1804.0990831770832
1013.1691,1652.1574499899143
1015.1627,1323.0076424996296
1017.1556,1000.1401986312703
1019.1477,1018.4956430797902
1021.1392,792.8644905387991
1023.1299,701.9872455169825
1025.12,741.4044045943738
1027.1093,662.1064573311596
1029.0979,790.4838858735093
1031.0859,753.2271657465462
1033.0731,723.776764570539
1035.0596,634.6731424334939
1037.0454,370.95675218568795
1039.0304,271.96804033071385
1041.0148,82.94744966260623
1042.9985,8.735420255747158
1044.9814,69.27239135507989
1046.9636,-9.501197881822009
1048.9452,-159.54490899007214
1050.926,-106.01830340976448
1052.9061,-102.02934872735932
1054.8855,-45.38495340649388
1056.8642,-62.94100663763675
1058.8421,61.94705578443245
1060.8194,77.6744268455659
1062.7959,67.53629891212768
1064.7717,35.777863573770446
1066.7469,114.64431174479978
1068.7213,47.030833981742035
1070.695,84.68261969472223
1072.6679,-75.20514217645541
1074.6402,-43.58726353878592
1076.6117,2.1321950000929064
1078.5826,131.89960826927563
1080.5527,109.86135107653536
1082.5221,268.5637969107047
1084.4908,569.553318162034
1086.4587,801.0262845351317
1088.426,989.6790600390814
1090.3925,917.2580006727148
1092.3584,927.7094525380962
1094.3235,622.8297525646922
1096.2879,551.6152284049022
1098.2515,468.7622014828303
1100.2145,526.166987706456
1102.1767,600.1758982961619
1104.1382,726.6352392106637
1106.099,976.191310406939
1108.0591,1109.240404575663
1110.0185,1278.3788046455884
1111.9771,1352.4027824530858
1113.9351,1049.5585970508255
1115.8923,652.7424939673729
1117.8488,385.30070823582355
1119.8045,-13.52053163821256
1121.7596,-13.725001002036151
1123.7139,-149.61634013283765
1125.6675,-84.64805219513073
1127.6204,69.57785431385128
1129.5726,95.96021653088974
1131.524,159.5978708969851
1133.4748,264.4396528935031
1135.4248,292.0343964058193
1137.3741,353.63093267494696
1139.3226,387.22809002170106
1141.2705,450.0246932306036
1143.2176,231.6195632139279
1145.164,275.46151638370793
1147.1097,338.2493668357856
1149.0546,433.9819259114156
1150.9989,404.00800156938203
1152.9424,302.07639742866013
1154.8852,108.13591306815215
1156.8272,22.035345046009752
1158.7686,-3.7265111609594896
1160.7092,-69.75086029628437
1162.6491,-176.68886987566657
1164.5883,10.008989396286779
1166.5267,101.09401193673693
1168.4644,291.7673921730602
1170.4014,477.8803235216401
1172.3377,822.5839964812476
1174.2732,997.129596771847
1176.2081,1256.5683018875789
1178.1421,1410.4512793513059
1180.0755,1653.8296841202318
1182.0082,1545.0046570470658
1183.9401,1486.427322446245
1185.8713,1310.0487891821758
1187.8017,1126.270151255012
1189.7315,928.5424895644319
1191.6605,531.2668737474378
1193.5888,371.0443641555903
1195.5163,311.0760158278281
1197.4432,217.56288009264972
1199.3693,162.8060051678258
1201.2947,70.70643709550495
1203.2193,3.765220289795252
1205.1432,129.93339845775336
1207.0664,130.76197769186547
1208.9889,211.80196278529183
1210.9106,312.5043572236318
1212.8316,275.62016237444186
1214.7519,471.90037648024736
1216.6715,477.94599502741767
1218.5903,449.95800878328737
1220.5084,346.43740373575565
1222.4257,444.6851613731633
1224.3424,284.402259719478
1226.2583,352.18967235185846
1228.1735,511.19837000343614
1230.0879,593.9293198854721
1232.0016,718.633484097234
1233.9146,683.7118187987217
1235.8269,606.3152729636458
1237.7384,530.8947887285976
1239.6492,308.80130216703037
1241.5592,300.135744043484
1243.4686,178.19904203451006
1245.3772,111.59212081531587
1247.285,11.015903279134363
1249.1922,-46.42868879674279
1251.0986,-8.59073374514628
1253.0042,-78.31884607634493
1254.9092,92.088445520807
1256.8134,232.5333947626932
1258.7169,420.5182544448435
1260.6196,558.8452750374527
1262.5216,735.9667028055737
1264.4229,887.3347784258003
1266.3234,1120.0017352150862
1268.2232,1191.8197976170486
1270.1223,1180.5911788753074
1272.0207,1141.8180803153045
1273.9183,1088.3526914565882
1275.8151,1066.8971904005193
1277.7113,1027.0037443649635
1279.6067,806.4245098988249
1281.5014,682.711633280971
1283.3953,582.71725272603
1285.2885,495.543499621519
1287.181,404.0924995278074
1289.0727,551.7163730498651
1290.9637,558.167236751724
1292.854,741.9472016802865
1294.7435,884.9583733007858
1296.6323,1137.602849658997
1298.5204,1446.1327199511434
1300.4077,1733.400061997414
1302.2943,1925.7569391566867
1304.1802,2067.555397453849
1306.0653,1986.9974636562438
1307.9497,1913.635143855623
1309.8333,1904.420424273805
1311.7162,1896.7052719962448
1313.5984,2062.091635064211
1315.4798,2202.4814425519326
1317.3605,2405.776602912745
1319.2405,2619.529002575182
1321.1197,2671.190503910024
1322.9982,2599.712943092789
1324.876,2700.498129587111
1326.753,2651.547846859481
1328.6293,2771.3138513714584
1330.5048,2877.6478730691233
1332.3796,2840.3516141854307
1334.2537,2832.276748176868
1336.127,2783.0249200964245
1337.9996,2769.7977466743396
1339.8714,2771.7968168106017
1341.7426,2700.723691707244
1343.6129,2679.9299048483554
1345.4826,2602.516962710797
1347.3515,2639.8863449721575
1349.2196,2584.439505284863
1351.087,2645.577870902467
1352.9537,2737.402843234162
1354.8197,2885.0157972333654
1356.6849,3098.568080479483
1358.5493,3171.16101170177
1360.4131,3215.3958786438197
1362.276,3116.673937337626
1364.1383,2951.8464116612085
1365.9998,2712.6644943258725
1367.8606,2414.029348524473
1369.7206,2232.392110323228
1371.5799,2062.003891648077
1373.4384,1933.2657821010544
1375.2962,1862.0788506641438
1377.1533,1598.6441469867168
1379.0096,1296.8627020973472
1380.8652,1039.8855310381769
1382.7201,838.0136358827222
1384.5742,582.7480083056653
1386.4275,494.38963160157437
1388.2802,371.2394832375503
1390.132,247.09853573682267
1391.9832,268.3177579102339
1393.8336,146.69811609765748
1395.6832,125.04057395580094
1397.5322,91.99609367441008
1399.3803,72.81563619282315
1401.2278,-1.3498384695776622
1403.0745,21.300628978464374
1404.9204,-34.98198868694453
1406.7656,1.4032810973149026
1408.6101,29.857760364404385
1410.4538,-2.167228866539517
1412.2968,45.379635125074856
1414.139,61.64969571045003
1415.9805,214.29429580700162
1417.8213,237.96477771564605
1419.6613,351.6624815943687
1421.5006,620.5887452215393
1423.3391,885.2449028588962
1425.1769,1234.7322825623014
1427.0139,1811.7022035351765
1428.8502,2410.1059726336352
1430.6858,3054.8948785967805
1432.5206,3426.670186062667
1434.3547,3739.73312912041
1436.188,3805.734907592425
1438.0206,3773.1766839037955
1439.8524,3615.3095824222837
1441.6835,3554.0846897838637
1443.5139,3512.203056471444
1445.3435,3425.965697427062
1447.1724,3425.073592470748
1449.0005,3382.3276871628696
1450.8279,3280.328892813057
1452.6545,3320.028086907696
1454.4804,3365.726114129873
1456.3056,3364.973785962411
1458.13,3284.8718802308686
1459.9536,3153.1211411110853
1461.7766,2810.5722799301875
1463.5987,2394.925976484108
1465.4202,2013.6828824630575
1467.2409,1637.0436256080102
1469.0608,1439.3088135231192
1470.88,1168.0790374421304
1472.6984,1024.1548742057057
1474.5161,757.486888973719
1476.3331,639.5756366645073
1478.1493,576.8216646215551
1479.9648,556.9255137925902
1481.7795,446.38771935715704
1483.5935,408.35881092554337
1485.4067,391.4893136441751
1487.2192,419.47974857589725
1489.031,379.28063286868564
1490.842,369.9924794757244
1492.6522,360.36579755740604
1494.4618,334.50109257420263
1496.2705,383.19886638295065
1498.0785,373.0096174954633
1499.8858,368.8338405916038
1501.6924,364.17202662111595
1503.4981,400.1246628454355
1505.3032,416.6422328842964
1507.1075,401.37521635619487
1508.911,411.4240887132073
1510.7138,443.6393213936608
1512.5159,365.87138172167033
1514.3172,343.12073258495
1516.1178,309.8378332125212
1517.9176,294.17313940218446
1519.7166,255.22710385336904
1521.515,227.6001763237873
1523.3126,255.19280401887954
1525.1094,250.45543186809664
1526.9055,248.33850224897833
1528.7008,233.192455034492
1530.4954,160.66772761423636
1532.2893,200.8147550458889
1534.0824,149.43397078044654
1535.8747,235.82580626079653
1537.6663,192.94069143547677
1539.4572,152.27905389480657
1541.2473,174.04131929967843
1543.0367,186.2279117882099
1544.8253,158.33925375810577
1546.6132,236.32576574479754
1548.4003,125.83786670032714
1550.1867,216.77597321348367
1551.9723,208.6405006146997
1553.7572,268.6818620666527
1555.5414,284.80046864562973
1557.3247,364.24672874110183
1559.1074,401.9210478945388
1560.8893,438.22382800496416
1562.6705,504.4054669521647
1564.4509,606.366358233714
1566.2305,676.906890303133
1568.0094,842.6274455502862
1569.7876,944.7783995959617
1571.565,1043.0101196346877
1573.3417,1089.2229634132273
1575.1176,1128.4172782482492
1576.8928,1133.8434005641793
1578.6672,1036.2016555012924
1580.4409,952.3923568614227
1582.2138,802.0158080844049
1583.986,681.1223030861511
1585.7575,620.5121277624057
1587.5282,557.1355611977087
1589.2981,520.1928762714924
1591.0673,471.4343402918312
1592.8358,485.81021536488333
1594.6035,479.170758882472
1596.3704,481.16622337833905
1598.1366,456.2468565945128
1599.9021,513.3629014613725
1601.6668,527.6645963468436
1603.4308,587.2521744852129
1605.194,695.0758638341358
1606.9564,781.93588647875
1608.7182,917.9324575534556
1610.4791,1030.6157843733054
1612.2394,1211.5360650740222
1613.9988,1383.7434874851897
1615.7576,1632.1382273210238
1617.5156,1887.4204464583381
1619.2728,2139.740290452555
1621.0293,2377.797885984901
1622.785,2432.8433383392166
1624.54,2353.076729021357
1626.2942,2248.898115208751
1628.0477,1951.3575305480626
1629.8005,1763.3549861969914
1631.5525,1508.040473799645
1633.3037,1328.8639673666075
1635.0542,1164.4254258280525
1636.804,995.4247948255343
1638.553,942.1620083563485
1640.3013,924.53699046355
1642.0488,853.9996557685972
1643.7955,873.2999096475778
1645.5416,894.2376489365852
1647.2868,944.2127617387159
1649.0313,1025.275127214696
1650.7751,1177.8246150831255
1652.5181,1390.261084809863
1654.2604,1607.4843840825288
1656.0019,1947.0443466861416
1657.7427,2358.6407903308755
1659.4828,2712.373513256476
1661.222,2984.442290116276
1662.9606,3040.946868439887
1664.6984,2917.4869659125234
1666.4354,2622.4122698099236
1668.1717,2187.9224382329794
1669.9072,1748.917103058453
1671.642,1382.3458742839011
1673.3761,1130.4583444177078
1675.1094,900.3540921448075
1676.8419,726.332684845569
1678.5737,592.5436808968134
1680.3048,514.6866314120434
1682.0351,430.8110815793243
1683.7646,376.7665714398554
1685.4934,363.9026367267361
1687.2215,315.0688094054094
1688.9488,274.76461780227874
1690.6754,206.13958709308827
1692.4012,243.74323970593105
1694.1263,196.92509600750964
1695.8506,205.034673927099
1697.5742,184.52148942472922
1699.297,181.18505641008414
1701.0191,147.22488694763888
1702.7404,109.29049129002306
1704.461,94.08137821763012
1706.1808,77.64705541794501
1707.8999,84.13702963764808
1709.6182,53.60080684696186
1711.3358,73.6878921747375
1713.0527,69.04779021383729
1714.7688,55.880004820253816
1716.4841,35.78403915949457
1718.1987,65.50939583826585
1719.9126,40.055577105438715
1721.6257,30.47208455479813
1723.338,44.75841937956284
1725.0496,-5.685917531744053
1726.7605,-14.461425738176331
1728.4706,-22.968547996480993
1730.18,-32.657582593763436
1731.8886,-40.528598361333934
1733.5964,8.36866211873894
1735.3036,-1.4651388549264084
1737.0099,-1.8293390673989052
1738.7156,6.176738332998866
1740.4204,-12.746211526979096
1742.1246,8.002506417662516
1743.8279,54.023714566563285
1745.5306,40.218235239339265
1747.2325,4.436890215380117
1748.9336,-3.4694991280994145
1750.634,0.7998885417637212
1752.3336,24.2459092181125
1754.0325,42.069418886108906
1755.7307,55.62127328845418
1757.4281,78.60232774717042
1759.1247,88.21343702807098
1760.8206,64.90545511096207
1762.5158,123.07923509352077
1764.2102,122.68562942438803
1765.9039,89.3754893214209
1767.5968,127.99966477562157
1769.289,73.3590048842434
1770.9804,132.10435746454277
1772.6711,142.48656960020162
1774.361,127.20648705386702
1776.0502,127.56495416332473
1777.7386,157.3628139942939
1779.4263,147.90090833683644
1781.1132,173.38007740740795
1782.7994,175.60115994345142
1784.4849,182.36499294862915
1786.1696,164.47241167061475
1787.8535,168.02424953344416
1789.5367,180.17133831645333
1791.2192,205.2645081187311
1792.9009,170.60458723765805
1794.5818,200.59240191798926
1796.2621,195.72877669844638
1797.9415,186.61453411182447
1799.6202,213.3004947336285
1801.2982,201.8874772731997
1802.9755,201.72629830688857
1804.6519,242.96777239217772
1806.3277,194.81271206929705
1808.0027,214.51192744880427
1809.6769,211.56622669312856
1811.3504,222.1764158195965
1813.0231,234.84329872986382
1814.6951,234.7676771038423
1816.3664,279.45035027299855
1818.0369,277.04211522114565
1819.7067,271.2937661375836
1821.3757,257.9060944412122
1823.044,290.62988883799153
1824.7115,254.61593545483447
1826.3783,274.5650175123574
1828.0443,265.17791568502435
1829.7096,284.6554079016569
1831.3741,299.24826943929656
1833.0379,328.0072727284314
1834.701,322.68318720707975
1836.3633,327.9267790331796
1838.0248,346.3388111378463
1839.6856,315.2700431729336
1841.3457,336.02123132691304
1843.005,339.5431286355506
1844.6636,356.4864847744011
1846.3214,388.8520460235941
1847.9785,418.14055509840546
1849.6349,411.9027508255931
1851.2904,384.13936785051374
1852.9453,395.35113669949897
1854.5994,376.4387840574873
1856.2528,422.6530326559114
1857.9054,418.0446014618283
1859.5572,430.2642052157589
1861.2083,449.3625544777897
1862.8587,481.09035550536646
1864.5084,464.3483100623271
1866.1572,447.23711510159956
1867.8054,464.9074629326424
1869.4528,490.8100413925422
1871.0994,456.99553366931286
1872.7453,472.3646180428768
1874.3905,473.3179682231912
1876.0349,482.4562531965785
1877.6786,483.580137216175
1879.3215,513.9402797105649
1880.9637,513.3873352725423
1882.6051,536.8219533554893
1884.2458,502.19477827893024
1885.8858,498.40644899416475
1887.525,533.0575994305527
1889.1634,498.1488585334009
1890.8011,501.0808499174382
1892.4381,518.2541922159053
1894.0743,546.6694990512588
1895.7098,527.2273788633993
1897.3446,532.328434625555
1898.9786,516.5732640386814
1900.6118,539.5124594804474
1902.2443,512.3466081628048
1903.8761,527.7762919025754
1905.5071,483.8020873931182
1907.1374,498.77456605004227
1908.7669,515.8942944509326
1910.3957,518.0618341856407
1912.0237,505.7277416850702
1913.651,504.7925681995166
1915.2776,491.1568599220009
1916.9034,489.6711579976345
1918.5285,451.23599865995493
1920.1528,426.90191324579246
1921.7764,440.81942857961803
1923.3992,441.7390672168858
1925.0213,417.5113473048532
1926.6427,419.936782573388
1928.2633,393.5158825772469
1929.8832,440.3991526718273
1931.5023,410.53709427736794
1933.1207,413.8802044101176
1934.7383,415.52897598096206
1936.3552,404.9838977619893
1937.9714,417.3954543700074
1939.5868,384.06412637198264
1941.2015,365.4903901609341
1942.8154,357.524718289249
1944.4286,385.5675796544183
1946.041,362.1694395786908
1947.6528,329.3807595286398
1949.2637,326.35199734915113
1950.8739,317.33360759129755
1952.4834,350.47604154264445
1954.0921,335.27974731742324
1955.7001,337.09516952510967
1957.3074,322.57274942238655
1958.9139,312.86292489498555
1960.5197,299.61613060291165
1962.1247,316.28279807754916
1963.729,277.41335585411616
1965.3325,270.35822930501854
1966.9353,284.01784102852616
1968.5374,272.19261091933186
1970.1387,253.23295603195402
1971.7393,258.7392906989844
1973.3392,273.51202672069303
1974.9383,252.35157330995753
1976.5366,213.85833694454504
1978.1342,251.1827215787107
1979.7311,268.57512902812596
1981.3273,243.73595859663965
1982.9227,237.2156069023622
1984.5173,251.214468126047
1986.1112,200.8829340762968
1987.7044,244.97139404957488
1989.2968,216.53023533351916
1990.8885,214.30984276605795
1992.4795,239.4605990198188
1994.0697,211.98288462434084
1995.6592,186.97707771455953
1997.2479,235.5935543055857
1998.8359,188.48268854276103
2000.4232,189.3448522154995
2002.0097,197.18041522839394
2003.5955,186.28974559259223
2005.1805,218.87320934744275
2006.7648,236.6311706694023
2008.3484,198.4139915461983
2009.9312,251.87203159924775
2011.5133,196.75564846583165
2013.0946,201.36519726451206
2014.6752,199.95103114630092
2016.2551,199.56350124855817
2017.8342,212.10295670913456
2019.4126,219.16974467025193
2020.9902,190.41421015310334
2022.5672,198.3866959871857
2024.1433,203.33754309786127
2025.7188,174.2170904266277
2027.2935,207.72567488160803
2028.8674,176.3636316287575
2030.4406,167.53129375677872
2032.0131,161.02899259074366
2033.5849,163.50705778041265
2035.1559,167.41581736526132
2036.7261,184.55559774969424
2038.2957,171.07672366396673
2039.8645,184.2795179927789
2041.4325,222.6143019100673
2042.9998,198.73139474697655
2044.5664,199.58111360851217
2046.1323,197.41377361236573
2047.6974,181.9796878804209
2049.2617,194.77916756042669
2050.8254,215.16252198033817
2052.3883,210.0800585203251
2053.9504,199.03208240893764
2055.5118,180.56889677392883
2057.0725,174.29080275273645
2058.6325,190.84809967711226
2060.1917,182.39108513589872
2061.7502,176.72005480946063
2063.3079,194.58530255425194
2064.8649,185.2871204595349
2066.4212,179.12579866871693
2067.9767,187.75162547233685
2069.5315,177.46488736967513
2071.0856,161.06586898250407
2072.6389,144.70485315795395
2074.1915,128.13212113249574
2075.7433,109.44795269555198
2077.2945,146.5026263552254
2078.8448,136.99641952514594
2080.3945,134.82960815391925
2081.9434,145.80246682018787
2083.4916,139.31526875430063
2085.039,136.81828572858467
2086.5857,125.6117881222217
2088.1317,125.84604494621544
2089.677,141.07132395545523
2091.2215,143.58789164637437
2092.7652,120.9960131046937
2094.3083,119.94595198026036
2095.8506,148.1879707129683
2097.3921,168.2723305432546
2098.933,154.54929122968224
2100.4731,149.2191108480938
2102.0124,159.03204592884322
2103.5511,157.13835151009698
2105.089,162.93828103969736
2106.6261,171.68208639411023
2108.1626,161.0200178204159
2109.6983,163.95232384887822
2111.2332,173.67925139956424
2112.7675,160.9510457530214
2114.301,143.26795045300787
2115.8337,177.83020743377074
2117.3657,186.43805719688044
2118.897,184.39173846561062
2120.4276,162.19148809885337
2121.9575,167.0375411115865
2123.4866,180.93013089688066
2125.0149,185.66948917743412
2126.5426,168.80584586664372
2128.0695,197.0394290212207
2129.5956,196.82046500982233
2131.1211,191.44917823071592
2132.6458,175.17579111396753
2134.1698,171.70052417515308
2135.693,170.27359617809088
2137.2155,190.99522416959644
2138.7373,187.215623493752
2140.2584,198.33500758469563
2141.7787,175.4535880044059
2143.2983,185.82157433151133
2144.8171,187.73917439010802
2146.3353,172.25659414608162
2147.8527,172.72403768792446
2149.3693,169.79170738157245
2150.8853,168.809803865719
2152.4005,151.82852608114445
2153.9149,158.0980712805349
2155.4287,143.01863519829203
2156.9417,177.04041198784216
2158.454,193.5635943724228
2159.9655,157.6383733048724
2161.4764,155.26493780239616
2162.9865,148.7434753058169
2164.4958,162.42417170330828
2166.0045,157.3072113956132
2167.5124,183.94277715923909
2169.0195,176.98105019761806
2170.526,189.57220987476103
2172.0317,180.06643378486933
2173.5367,181.21389762641775
2175.0409,177.71477529722688
2176.5445,189.56923888297842
2178.0473,176.27745869221144
2179.5494,190.73960313778025
2181.0507,171.65583886976583
2182.5513,166.22633063085414
2184.0512,171.6512414471772
2185.5504,161.6307326826054
2187.0488,165.9649639845038
2188.5465,153.35409338393129
2190.0435,148.7482772523008
2191.5397,148.4976704274868
2193.0353,173.05242625988376
2194.5301,151.0626966149066
2196.0241,146.6286316274527
2197.5175,152.3503799217924
2199.0101,137.07808865591778
2200.502,121.36190346431249
2201.9931,111.60196861068562
2203.4835,110.24842714512579
2204.9733,121.50142100170524
2206.4622,118.21109101201455
2207.9505,122.02757679263141
2209.438,114.95101677802995
2210.9248,116.9815481824071
2212.4109,106.46930707045522
2213.8962,102.41442833705241
2215.3809,102.467045812391
2216.8648,95.17729230252007
2218.3479,114.6452995888194
2219.8304,111.67119850089966
2221.3121,113.0051187219251
2222.7931,91.04718881834742
2224.2733,99.64753622657008
2225.7529,87.45628747253704
2227.2317,88.22356808571112
2228.7098,101.0995027209974
2230.1872,76.03421515107038
2231.6638,101.0778281376106
2233.1397,81.33046368195573
2234.6149,84.24224277466874
2236.0894,67.66328559300382
2237.5632,90.19371147180027
2239.0362,93.88363906926315
2240.5085,84.63318614166747
2241.9801,71.04246950644847
2243.4509,66.01160513471768
2244.921,69.59070828715812
2246.3904,53.97989356434027
2247.8591,66.42927487092948
2249.3271,61.538965571794506
2250.7943,50.05907836751703
2252.2608,52.8897253432915
2253.7266,81.13101808372721
2255.1917,60.73306764454355
2256.656,62.545984270152985
2258.1197,65.76987759764324
2259.5826,54.85485663864347
2261.0447,55.151029747085886
2262.5062,49.35850472835864
2263.9669,69.32738883633738
2265.4269,72.40778883131861
2266.8862,82.54981078032961
2268.3448,77.60356002631761
2269.8026,66.81914108673664
2271.2598,63.44665770300344
2272.7162,76.38621294835139
2274.1719,70.43790926154088
2275.6268,74.50184831747538
2277.0811,71.72813108667742
2278.5346,80.31685779465806
2279.9874,95.96812794964626
2281.4395,95.93204025671002
2282.8908,64.40869246123657
2284.3414,97.44818134929483
2285.7914,80.90060306286341
2287.2406,64.61605276944465
2288.689,88.84462482753588
2290.1368,78.18641294947884
2291.5838,93.59150995917025
2293.0302,78.26000789864611
2294.4758,74.04199787402831
2295.9206,80.33757020884241
2297.3648,71.59681448619267
2298.8082,80.56981948581142
2300.251,82.90667327146275
2301.693,77.70746310121558
2303.1343,95.12227540407002
2304.5748,86.50119583195738
2306.0147,99.29430908558561
2307.4538,94.20169900065184
2308.8922,83.17344841990962
2310.3299,79.0596392440957
2311.7669,58.360352542211785
2313.2031,56.42566859266617
2314.6387,56.055667090268344
2316.0735,64.50042716557118
2317.5076,64.36002738857769
2318.941,89.83454568428488
2320.3737,79.22405933409209
2321.8056,78.47864472105584
2323.2369,73.19837743599328
2324.6674,68.63333228493684
2326.0972,71.58358334193599
2327.5263,81.6492039947093
2328.9547,75.58026691514533
2330.3823,77.12684395864153
2331.8092,75.33900622479723
2333.2355,63.66682404194171
2334.661,93.96036698501439
2336.0858,87.96970399229122
2337.5098,89.74490306244752
2338.9332,104.4860313144668
2340.3558,89.9431549698802
2341.7778,81.76633920536096
2343.199,68.15564829815548
2344.6195,95.21114570784721
2346.0393,65.88289421246418
2347.4583,88.92095563792327
2348.8767,83.82539115131385
2350.2943,78.64626103052024
2351.7113,85.88362471517212
2353.1275,97.43754085844284
2354.543,88.2580672546651
2355.9578,90.69526072379676
2357.3718,99.64917720322137
2358.7852,74.76987172337476
2360.1978,74.9573983182022
2361.6098,85.86181027395605
2363.021,69.93316012731611
2364.4315,76.02149955634741
2365.8413,63.72687953978357
2367.2504,76.59935029614508
2368.6587,71.08896140668412
2370.0664,55.04576168665699
2371.4733,70.81979924043662
2372.8795,61.461121621944585
2374.285,62.61977567690565
2375.6899,55.845807636439076
2377.0939,64.13926310546412
2378.4973,69.75018713045074
2379.9,59.72862411647475
2381.3019,48.92461777111157
2382.7032,43.43821120466146
2384.1037,60.71944703817189
2385.5035,46.41836745831188
2386.9027,51.785014044558466
2388.3011,57.06942791219899
2389.6987,38.971649658671595
2391.0957,64.54171931072142
2392.492,43.17967650536775
2393.8876,27.535560234214245
2395.2824,44.109409057067296
2396.6765,36.101261258386785
2398.07,15.811154681539392
2399.4627,43.53912680887743
2400.8547,43.58521496464073
2402.246,29.24945603767219
2403.6366,28.581886480969388
2405.0265,27.182542455036582
2406.4156,31.351459834561865
2407.8041,33.08867422241383
2409.1918,32.294220907944236
2410.5789,11.818134849620492
2411.9652,13.260450682970259
2413.3508,19.37120292534155
2414.7358,20.000425961480232
2416.12,8.948153982419171
2417.5035,24.96442097918907
2418.8863,14.249260853341184
2420.2684,14.25270725678456
2421.6497,8.574793698934627
2423.0304,7.465553546681804
2424.4104,15.175020081169805
2425.7896,3.7532265088862005
2427.1682,8.450205884568732
2428.546,13.015991225424386
2429.9232,6.550615464160273
2431.2996,4.0041114033238046
2432.6753,14.626511779958037
2434.0503,20.617849291070343
2435.4246,10.878156487401611
2436.7982,8.70746571351674
2438.1711,16.305809205201058
2439.5433,18.4732191111666
2440.9148,1.0097274170684614
2442.2856,16.81536592383236
2443.6557,10.490156345205378
2445.025,23.234120226783944
2446.3937,33.24727900926109
2447.7617,13.67965390099107
2449.1289,18.331265777855606
2450.4955,35.35213537894424
2451.8613,31.292283260032946
2453.2265,23.90172962337965
2454.5909,26.730494358318538
2455.9546,17.278597115168395
2457.3177,25.846057276942247
2458.68,32.732894053869586
2460.0416,35.18912639771952
2461.4025,48.51477293293374
2462.7627,42.109851932065794
2464.1222,43.32438118252185
2465.4811,35.508378050609736
2466.8392,28.661859469395495
2468.1966,37.28484201686115
2469.5533,57.22734198437138
2470.9093,69.63937529044279
2472.2645,59.870957281318624
2473.6191,54.07210260685042
2474.973,63.192825318179075
2476.3262,50.28313892572987
2477.6787,56.59305630799781
2479.0305,47.57258984064856
2480.3816,41.321751333417524
2481.7319,28.740552120314987
2483.0816,39.22900312213551
2484.4306,39.53711497226732
2485.7789,48.91489791181402
2487.1264,34.26236178650697
2488.4733,21.129515952929978
2489.8195,34.56636942504565
2491.165,43.47293100552133
2492.5097,44.59920915136263
2493.8538,45.74521188484641
2495.1972,16.410946782258634
2496.5398,29.04642096243333
2497.8818,26.151641380097317
2499.2231,19.276614699511356
2500.5637,19.92134732342174
2501.9035,16.23584546180973
2503.2427,11.970115125447592
2504.5812,20.72416216274678
2505.919,34.29799230241906
2507.256,44.49161106593829
2508.5924,25.555023631797667
2509.9281,19.088234733575973
2511.2631,29.891248849301974
2512.5974,42.314070266122144
2513.9309,30.056702972273342
2515.2638,34.21915053285238
2516.596,48.45141621238963
2517.9275,29.2535029332239
2519.2583,45.025413133183065
2520.5884,17.11714895755904
2521.9178,45.02871210139119
2523.2465,30.410104088548906
2524.5745,30.211325992614093
2525.9018,30.08237858307075
2527.2284,44.37326232728856
2528.5543,44.58397739181555
2529.8796,34.36452349946785
2531.2041,44.36489992722227
2532.5279,42.835105608410686
2533.851,42.02513903271756
2535.1735,38.284998261475266
2536.4952,37.914680935768956
2537.8163,33.86418431383299
2539.1366,41.28350527475686
2540.4562,51.1726403589887
2541.7752,55.031585694143814
2543.0935,59.060336896111494
2544.411,47.75888903046689
2545.7279,51.97723657218421
2547.0441,64.46537351864936
2548.3596,71.97329334747701
2549.6744,77.65098889163119
2550.9885,62.598452264342086
2552.3019,55.96567480233034
2553.6146,61.352647216334844
2554.9266,65.10935965743784
2556.2379,59.58580166319916
2557.5485,70.98196212008588
2558.8585,69.29782931870659
2560.1677,85.38339083985193
2561.4762,82.83863357133532
2562.7841,77.76354354713476
2564.0913,77.8581059728449
2565.3977,91.72230527642341
2566.7035,91.80612510725177
2568.0086,82.5095481974854
2569.313,95.83255636122294
2570.6167,85.77513058746763
2571.9197,86.08725090689859
2573.222,93.71889649244486
2574.5236,94.12004565616485
2575.8246,94.19067577292867
2577.1248,106.03076327640883
2578.4244,111.34028365836957
2579.7232,109.06921135026982
2581.0214,127.56751967016476
2582.3189,122.73518084542002
2583.6157,124.62216582772567
2584.9118,140.3284443414209
2586.2072,117.85398486462441
2587.5019,127.64875447217173
2588.7959,133.56271906036
2590.0893,134.39584324899943
2591.3819,146.59809032227372
2592.6739,141.86942222041012
2593.9652,144.259799417654
2595.2557,150.81918096955883
2596.5456,146.0475244890813
2597.8348,159.29478608098634
2599.1234,141.96092038956567
2600.4112,141.29588046616254
2601.6983,148.09961794251217
2602.9848,148.67208303738994
2604.2705,144.01322448857604
2605.5556,141.22298954713006
2606.84,162.951324023981
2608.1237,147.248172317828
2609.4067,148.71347719785763
2610.689,140.5971799607771
2611.9707,146.5492204161585
2613.2516,154.01953696760393
2614.5319,139.80806655322544
2615.8115,142.01474457094014
2617.0903,130.08950502058565
2618.3685,137.78228048185338
2619.6461,136.94300223354026
2620.9229,137.17160017662172
2622.199,137.11800284264314
2623.4745,141.38213739143612
2624.7493,145.56392961165125
2626.0234,144.56330387811977
2627.2968,130.83018311003502
2628.5695,141.3144887809574
2629.8415,138.76614105614772
2631.1128,130.8350586877218
2632.3835,140.37115904013604
2633.6535,141.574358169496
2634.9228,145.49457072819814
2636.1914,138.53170995289474
2637.4593,148.88568762529303
2638.7265,131.85641414178508
2639.9931,131.793798409906
2641.259,146.3977480186286
2642.5242,127.9681692389895
2643.7887,130.25496687804775
2645.0525,133.65804446318202
2646.3156,121.7773042192207
2647.5781,140.7126470344133
2648.8398,137.81397257923663
2650.1009,130.33117911704176
2651.3613,138.01416353304194
2652.6211,136.06282140913913
2653.8801,134.77704694709564
2655.1385,121.506732988046
2656.3961,136.45177102535467
2657.6531,136.562051337321
2658.9094,123.78746283772739
2660.1651,137.17789307473686
2661.42,131.83322835863714
2662.6743,151.85335362793785
2663.9279,154.2881525028174
2665.1808,146.38750708492103
2666.433,142.05129793301285
2667.6846,153.679404141983
2668.9354,156.5717033862079
2670.1856,166.32807180327177
2671.4351,169.14838396504183
2672.6839,167.5825127801054
2673.9321,164.28032946556687
2675.1795,173.0917035627067
2676.4263,164.5165029700031
2677.6724,166.70459385501727
2678.9179,176.45584074014664
2680.1626,182.52010648074224
2681.4067,180.9472521675973
2682.6501,174.83713706630328
2683.8928,180.6396186329789
2685.1348,174.7545525753701
2686.3761,159.4817927948311
2687.6168,170.4211914451696
2688.8568,168.57259908537753
2690.0961,154.68586457023548
2691.3348,163.61083506879822
2692.5727,173.19735620326264
2693.81,142.495271959717
2695.0466,156.2044245922782
2696.2826,150.1746549301099
2697.5178,157.75580224033388
2698.7524,144.39770428832503
2699.9863,147.45019726190117
2701.2195,150.26311590490423
2702.452,161.38629348667405
2703.6839,151.26956177391958
2704.9151,159.6127509194887
2706.1456,162.06568956353271
2707.3755,172.0282047500773
2708.6046,187.95012190249145
2709.8331,180.33126472386334
2711.0609,192.9214550377801
2712.2881,186.3705128645172
2713.5145,202.4282562951371
2714.7403,206.79450155699737
2715.9654,210.7190628531739
2717.1899,228.70175231879784
2718.4136,247.14237998180965
2719.6367,262.8907535831347
2720.8591,268.99667839227345
2722.0809,282.55995704982115
2723.3019,277.3803895064066
2724.5223,288.6077728870598
2725.7421,289.19190154300804
2726.9611,292.1325669394023
2728.1795,287.4295576494751
2729.3972,276.8826593251333
2730.6142,273.69165474399006
2731.8306,253.50632391483146
2733.0462,232.27644410952757
2734.2612,224.15179006488506
2735.4756,199.6821341949469
2736.6892,189.06724667223966
2737.9022,173.5068956724681
2739.1145,143.05084748066542
2740.3262,139.24886664679798
2741.5372,127.65071629032332
2742.7475,121.7561581382115
2743.9571,110.9149526409251
2745.1661,102.72685903136608
2746.3744,81.99163543328768
2747.582,74.30903894317362
2748.7889,65.97882583759156
2749.9952,53.35075165001854
2751.2008,47.37457125414494
2752.4057,44.300038990154235
2753.61,41.3769087244832
2754.8136,36.504933880570206
2756.0165,36.48386746808592
2757.2188,40.76346213165175
2758.4204,43.04347015105236
2759.6213,24.773643398437343
2760.8215,36.05373331552255
2762.0211,33.38349109628757
2763.22,16.562667574175066
2764.4182,17.041013248793433
2765.6158,5.218278454124857
2766.8127,15.394213353740952
2768.009,-1.7814319409683321
2769.2045,3.991092527445062
2770.3994,0.5115545129335715
2771.5936,-5.670278270460585
2772.7872,1.7453618861893574
2773.9801,-20.591700662109815
2775.1723,-14.081641577804021
2776.3639,-8.374430812250466
2777.5548,-15.169897641207172
2778.745,-24.467787679868934
2779.9346,-16.917694996154296
2781.1235,-20.268969224783405
2782.3117,-11.420790992703814
2783.4992,-12.77213843986101
2784.6861,-9.021875612499116
2785.8723,-3.4687389631999395
2787.0579,6.688625183992826
2788.2428,6.801605157736276
2789.427,-0.2784107801983282
2790.6106,11.69996556394517
2791.7935,18.5381251652459
2792.9757,25.88745888178346
2794.1573,41.199357386257134
2795.3382,47.82521109249092
2796.5184,60.41641000231789
2797.698,70.82434363931839
2798.8769,75.05040092290892
2800.0551,99.94597006426329
2801.2327,121.26243852405128
2802.4096,139.7511927634846
2803.5859,151.31361803115124
2804.7615,166.20109817812863
2805.9364,198.4150155423572
2807.1106,203.60675079976818
2808.2842,247.62768264214264
2809.4572,275.5291877251941
2810.6294,317.96264022835976
2811.801,364.6794115757832
2812.972,400.6808700119843
2814.1423,443.8683801346897
2815.3119,499.3433025348172
2816.4808,524.406993364601
2817.6491,570.9108037828423
2818.8167,632.2060797042727
2819.9837,667.6941613345168
2821.15,714.0263825571392
2822.3157,750.3540705787623
2823.4807,809.7785454657467
2824.645,834.6511197809095
2825.8086,870.8230979892842
2826.9716,900.745776209393
2828.134,962.9704418515298
2829.2957,983.6483733185296
2830.4567,1018.8308393835223
2831.617,1019.219098983157
2832.7767,1030.0144008657712
2833.9358,1027.3179835875142
2835.0941,1016.7810754043903
2836.2519,1010.3048942992261
2837.4089,992.1406480870364
2838.5653,981.0395344797889
2839.7211,985.0527412680453
2840.8761,1000.2314464319734
2842.0306,1015.7768181012134
2843.1843,1054.4900144030923
2844.3374,1110.4721833071699
2845.4899,1173.374462238105
2846.6417,1251.5979775158373
2847.7928,1326.793843726561
2848.9433,1411.9131629404899
2850.0931,1468.7070239599022
2851.2422,1549.6765014679436
2852.3907,1622.272655460691
2853.5385,1693.096530437457
2854.6857,1738.749154674828
2855.8323,1785.3315395184268
2856.9781,1847.9446789263839
2858.1233,1882.7395490035153
2859.2679,1933.0171073751915
2860.4118,1969.6282928393878
2861.555,1994.2740248639088
2862.6976,2055.1552032202776
2863.8395,2074.4727077372763
2864.9808,2099.277397692137
2866.1214,2123.3201116173636
2867.2614,2119.5516670526868
2868.4007,2123.7228603046387
2869.5393,2143.384466484232
2870.6773,2158.6872394652546
2871.8146,2160.6319116876502
2872.9513,2167.069194004489
2874.0874,2166.899775662524
2875.2227,2138.424324237817
2876.3574,2126.7434856374325
2877.4915,2102.007884384192
2878.6249,2090.2181237334826
2879.7577,2044.2747859206124
2880.8898,2032.728432278708
2882.0212,2018.0796036981517
2883.152,2007.0288207420408
2884.2821,1975.726583792677
2885.4116,1981.8233731620746
2886.5405,1973.2696494049837
2887.6686,1989.715853257921
2888.7962,1987.1124057247087
2889.923,1992.6097079120104
2891.0493,2012.8081410553664
2892.1748,2029.0580664642214
2893.2997,2027.7098253199376
2894.424,2044.3137385132984
2895.5476,2074.7201066579883
2896.6706,2081.779209924557
2897.7929,2118.9413077363515
2898.9145,2159.35663869893
2900.0355,2171.275420228436
2901.1559,2217.5478481474483
2902.2756,2245.724096565791
2903.3946,2273.8543174178117
2904.513,2291.538640180617
2905.6308,2315.4271715927716
2906.7479,2346.719995477455
2907.8643,2368.0171725035752
2908.9801,2394.2687398728403
2910.0953,2381.0747111067894
2911.2098,2384.485075784274
2912.3236,2375.8497996734
2913.4368,2363.518824697421
2914.5494,2346.1420690210953
2915.6613,2327.4194271739925
2916.7725,2310.6507702242634
2917.8831,2281.6859459658635
2918.9931,2248.9247790862432
2920.1024,2198.4670714559934
2921.211,2194.9626024564577
2922.319,2179.46112948431
2923.4264,2180.8623879865986
2924.5331,2163.766091615762
2925.6391,2136.5219322156145
2926.7445,2142.7795799923088
2927.8493,2146.13868378678
2928.9534,2127.9488710121655
2930.0569,2121.709747620218
2931.1597,2109.2708982832037
2932.2619,2103.631886456289
2933.3634,2105.192254501935
2934.4643,2089.7515237462812
2935.5645,2060.109194463549
2936.6641,2018.2147460304432
2937.763,1982.3676372225787
2938.8613,1940.267306633423
2939.959,1872.9131730327672
2941.056,1812.00463578773
2942.1523,1730.3410755362986
2943.248,1648.121854796414
2944.3431,1553.8963187826078
2945.4375,1449.363796228192
2946.5313,1332.6736003275173
2947.6244,1232.2750297812956
2948.7169,1142.6173699635044
2949.8087,1057.2498939253726
2950.8999,968.0218632919539
2951.9904,891.5825291158051
2953.0803,820.6811327692642
2954.1696,758.4169067088444
2955.2582,708.3890751842478
2956.3462,664.0468548610088
2957.4335,628.4394553207715
2958.5202,596.3660795047122
2959.6062,579.8259240696132
2960.6916,557.1681797085963
2961.7764,536.4920313165253
2962.8605,527.7466582165825
2963.9439,527.7812343670315
2965.0267,506.5449284486689
2966.1089,503.2369038644799
2967.1905,509.60631895200015
2968.2714,515.2023270163967
2969.3516,508.9240762667739
2970.4312,518.0707097602124
2971.5102,520.9913654645524
2972.5885,514.935176166928
2973.6662,527.9512694445601
2974.7432,525.3387677253173
2975.8196,535.5967881575557
2976.8954,513.1244426362448
2977.9705,507.5708377003857
2979.045,498.385074757736
2980.1188,477.5662501403456
2981.192,474.26345519641404
2982.2645,450.87577649847924
2983.3364,434.802295876445
2984.4077,407.4920906514569
2985.4783,370.29423379663876
2986.5483,360.2077942101938
2987.6177,322.0318370873831
2988.6864,280.71542402139016
2989.7545,258.90761338508094
2990.8219,224.50746074416656
2991.8887,212.21401907528366
2992.9548,175.77633910999486
2994.0204,152.4934694577231
2995.0852,118.06445697012884
2996.1495,108.38834697393759
2997.2131,87.56418361523129
2998.276,69.84100995620861
2999.3383,51.21786818342696
3000.4,35.74379978503384
3001.4611,27.717845736998584
3002.5215,25.539046657852737
3003.5812,-0.34355711104979036
3004.6404,-1.2809254837454773
3005.6989,2.825985057864955
3006.7567,2.8762308283260154
3007.8139,-7.931131886076969
3008.8705,-9.1970468278206
3009.9264,-12.322378507374083
3010.9818,-13.607899556708958
3012.0364,-4.354259507236179
3013.0905,-10.46197194744991
3014.1439,-6.18150696679254
3015.1966,-16.563230139606276
3016.2487,0.4425547130210816
3017.3002,-2.0642907633293817
3018.3511,9.416095072498592
3019.4013,5.633594483925549
3020.4509,13.938089640211501
3021.4998,19.72946265428095
3022.5481,32.15759549967788
3023.5958,36.62236995265175
3024.6428,34.423667467876385
3025.6892,40.761369133802646
3026.735,47.53535569464418
3027.7802,55.29550748700217
3028.8247,54.04170437212406
3029.8685,63.273825658302826
3030.9118,76.9417501134144
3031.9544,82.2953558725967
3032.9963,100.18452030157005
3034.0376,103.00911994310297
3035.0783,121.56903033811852
3036.1184,112.06412599744954
3037.1578,126.44428021623878
3038.1966,131.25936516898832
3039.2348,138.55925176575738
3040.2723,141.39380960401195
3041.3092,142.61290689562622
3042.3455,130.36641043853615
3043.3811,139.10418560454912
3044.4161,137.0260964618086
3045.4505,146.78200568741647
3046.4842,140.62177458821452
3047.5173,134.39526300322427
3048.5498,127.75232936525015
3049.5816,123.59283076314398
3050.6128,125.71662300823448
3051.6434,128.67356067592254
3052.6734,111.66349708444307
3053.7027,108.83628426529572
3054.7314,110.24177313334553
3055.7594,116.77981351509459
3056.7868,113.75025413462731
3057.8136,106.45294254823045
3058.8398,108.68772517468835
3059.8653,108.45444736825584
3060.8902,97.50295339631066
3061.9145,106.9330864416861
3062.9381,96.74468871218619
3063.9612,109.23760134628424
3064.9835,99.01166451500717
3066.0053,89.26671729700598
3067.0264,91.15259778081526
3068.0469,87.76914316230261
3069.0668,81.81618972581009
3070.086,80.94357287798812
3071.1046,75.10112720732542
3072.1226,64.83868649287507
3073.1399,59.256083762679054
3074.1567,57.25315139639292
3075.1727,52.82972118111104
3076.1882,41.33562433139673
3077.203,37.570691533516424
3078.2173,33.884753060380035
3079.2308,27.277638809191103
3080.2438,26.19917833830567
3081.2561,15.449200933303473
3082.2678,18.527535617772912
3083.2789,18.284011260810587
3084.2893,9.018456546237928
3085.2991,4.680699975036703
3086.3083,8.970569958004262
3087.3169,-0.8121051408688231
3088.3248,-1.0674970472977066
3089.3321,-0.09576937406717434
3090.3388,-0.9470750696671644
3091.3449,-4.021566125851507
3092.3503,-1.2193850730943723
3093.3551,-1.9906342664243653
3094.3593,-4.135403879213413
3095.3629,-2.1537641983973685
3096.3658,-2.1957441982274304
3097.3681,-1.3613513368507597
3098.3698,-1.3005711369299888
3099.3708,-2.213375521228045
3100.3713,-8.449723419802126
3101.3711,-1.3095516510881566
3102.3702,-2.9427126207854712
3103.3688,7.100954347827724
3104.3667,-0.17836067082805585
3105.364,3.719532326658509
3106.3607,8.044825125521754
3107.3568,1.9477094738008418
3108.3522,4.578377039087002
3109.347,-0.16298053050530825
3110.3412,8.87382836735469
3111.3348,0.13899696317309918
3112.3277,4.582718398717873
3113.32,12.605184427177505
3114.3117,10.006586755913418
3115.3028,7.437116966235521
3116.2932,13.34696653938812
3117.2831,13.286326882244566
3118.2723,20.95538926820859
3119.2608,14.604344837820975
3120.2488,24.93338452206848
3121.2361,18.14269910589485
3122.2229,21.082479124909753
3123.209,24.052914933296506
3124.1944,26.254196674413492
3125.1793,23.886514251090034
3126.1635,26.05005730361364
3127.1471,23.24501523340689
3128.1301,31.37157718139173
3129.1125,30.829932056040377
3130.0942,32.1202684521092
3131.0753,27.942774656055576
3132.0558,34.4976386331341
3133.0357,35.13504806917206
3134.015,37.30519030502032
3134.9936,38.158252330179664
3135.9716,42.59442076109886
3136.949,37.76388183264453
3137.9258,39.366821353738885
3138.902,44.75342475566572
3139.8775,44.1238770760404
3140.8524,39.928362904944436
3141.8267,46.76706639122034
3142.8004,48.64017128442731
3143.7735,43.89786086645398
3144.7459,51.89031793278724
3145.7178,51.017724839935596
3146.689,55.830263425504455
3147.6596,54.07811501692197
3148.6295,53.561460383314
3149.5989,53.53047975302522
3150.5676,58.485352818785856
3151.5357,57.47625873802153
3152.5032,61.80337608330427
3153.4701,59.516882852443814
3154.4364,57.76695642521611
3155.402,59.95377358622858
3156.367,65.1275105424192
3157.3315,65.73834290118853
3158.2952,62.88644561866198
3159.2584,63.42199299358177
3160.221,64.54515869582568
3161.1829,69.40611576105164
3162.1442,69.1050365794662
3163.105,67.54209284721469
3164.065,67.6674555693921
3165.0245,76.73129507567279
3165.9834,75.18378101905645
3166.9416,83.57508228523005
3167.8993,76.35536700804278
3168.8563,82.32480248559307
3169.8127,77.73355525242582
3170.7684,85.38179101983803
3171.7236,81.31967472179116
3172.6782,86.59737043842881
3173.6321,90.01504143669789
3174.5854,88.47285011757168
3175.5381,87.92095798187319
3176.4902,85.95952564569683
3177.4417,87.53871284592758
3178.3926,93.20867845985529
3179.3428,92.1695804893827
3180.2924,91.32157600432585
3181.2415,92.86482115280506
3182.1899,94.29947116972491
3183.1377,95.7256803613419
3184.0848,96.09360209091787
3185.0314,99.70338876445784
3185.9773,101.55519182703105
3186.9227,101.2491617266727
3187.8674,101.6354478958662
3188.8115,105.56419875460335
3189.755,108.53556170652146
3190.6979,105.94968309961595
3191.6402,104.75670819652669
3192.5818,106.65678120039686
3193.5229,115.45004526680256
3194.4633,115.8866424847522
3195.4031,111.86671378875374
3196.3423,113.39039895444867
3197.2809,115.05783663881141
3198.2189,118.71916436491234
3199.1563,124.1245185052436
3200.0931,123.22403424510574
3201.0292,121.36784552855417
3201.9648,126.35608506740398
3202.8997,123.68888435979189
3203.834,124.8663736402937
3204.7677,122.58868190659646
3205.7008,123.20593690772351
3206.6333,128.46826516681142
3207.5652,130.4757919749374
3208.4964,132.42864133849608
3209.4271,137.576935959124
3210.3571,136.6707972141716
3211.2865,135.86034510521978
3212.2154,139.89569826714157
3213.1436,142.07697397620652
3214.0712,135.10428810972726
3214.9982,141.8777551242466
3215.9246,141.19748812526458
3216.8503,144.3135987995037
3217.7755,142.92619742171144
3218.7001,149.98539282349947
3219.624,149.89129240721738
3220.5473,152.6440020753609
3221.4701,150.2436262315129
3222.3922,151.8402677528162
3223.3137,161.73402801397742
3224.2346,153.62500687130046
3225.1549,159.16330256374897
3226.0746,154.99901179403656
3226.9937,157.3822296732437
3227.9121,160.7130497624609
3228.83,162.84156404895637
3229.7473,163.31786291286772
3230.6639,163.492035105917
3231.5799,167.16416774664765
3232.4954,161.5843463186827
3233.4102,171.75265463400356
3234.3244,168.51917488874815
3235.238,172.68398756152783
3236.151,174.99717144576226
3237.0634,172.35880360803117
3237.9752,171.51895936494253
3238.8864,178.97771230951636
3239.797,175.0351343195831
3240.7069,178.44129548319597
3241.6163,180.2962641380569
3242.5251,180.65010683745487
3243.4332,178.70288833171625
3244.3408,180.00467156466624
3245.2477,184.5555176931012
3246.154,184.7054860737707
3247.0598,185.20463421786914
3247.9649,190.10301778953607
3248.8694,186.80069060086464
3249.7733,189.8977045629178
3250.6766,188.4941097187516
3251.5793,193.78995421244494
3252.4814,196.98528430313573
3253.3829,192.3801443120622
3254.2838,196.17457659060983
3255.1841,195.26862156636244
3256.0838,199.1623177051583
3256.9829,197.90570152014934
3257.8814,197.54880753286432
3258.7792,199.64166828577498
3259.6765,202.6843143458649
3260.5731,199.37677428370105
3261.4692,202.86907464300714
3262.3647,206.61123997373915
3263.2595,203.80329279716227
3264.1538,204.29525356842922
3265.0474,205.7871407046598
3265.9404,204.97897058002127
3266.8329,201.62075751080937
3267.7247,205.51251376353014
3268.616,204.55424958848195
3269.5066,209.09597318083803
3270.3966,203.43769069022918
3271.286,202.42940617532622
