RamanShift,CorrectedData
30.1047,6803.219851060708
32.3739,6348.501207116903
34.6426,5903.232495140899
36.9109,5453.413583615486
39.1787,5011.894281991124
41.4461,4574.874345184144
43.7131,4131.3034779919235
45.9796,3686.9313394631013
48.2456,3248.8075473332733
50.5112,2808.6816824687216
52.7764,2370.3532932476514
55.0411,1940.7718999614497
57.3054,1500.78699919797
59.5692,1073.5980681373453
61.8326,644.7045689518395
64.0955,217.75595307773415
66.3579,-193.29833449573368
68.6199,-598.558850956887
70.8815,-970.2742224436868
73.1426,-1222.237095491174
75.4032,-1157.9304235949085
77.6634,-279.62495010186876
79.9231,2615.0201493658974
82.1824,9873.748492639595
84.4412,28413.603671400226
86.6995,55516.8291785913
88.9574,59421.16822302032
91.2148,58940.51345832647
93.4717,58458.70694393727
95.7282,57989.89014987508
97.9842,57520.803961575235
100.2398,57056.638684574136
102.4949,56597.73404920016
104.7495,56132.7292152153
107.0036,55680.46277640424
109.2573,55220.172765224335
111.5105,54759.696657328335
113.7632,54303.02137616728
116.0154,53832.03329759524
118.2672,53387.26825443607
120.5185,52928.61154119331
122.7693,52473.14791849782
125.0197,52023.91161769432
127.2696,51565.4363453961
129.519,51114.105287977276
131.7679,50657.70111615767
134.0163,50205.605989516014
136.2642,49753.351561054056
138.5117,49300.86898171748
140.7587,48859.38890491848
143.0052,48410.941491060556
145.2512,47968.3564119533
147.4967,47526.66285529692
149.7417,47082.53952910805
151.9863,46640.96466613672
154.2304,46198.666028307554
156.4739,45760.520911135536
158.717,45318.85614814899
160.9596,44879.89811527105
163.2017,44449.522735236285
165.4433,44014.90548198027
167.6844,43588.071384943374
169.925,43157.24503341693
172.1651,42724.550580811556
174.4047,42298.311748965396
176.6439,41868.70183247114
178.8825,41443.69370293831
181.1206,41018.30981328945
183.3582,40591.62220201016
185.5954,40176.00249740294
187.832,39755.62192185407
190.0681,39339.151295989854
192.3037,38920.46104288038
194.5388,38510.52119220423
196.7734,38095.751384435425
199.0075,37684.42087494273
201.2411,37274.39853813745
203.4742,36876.75287158672
205.7068,36473.50200011366
207.9389,36067.813679773884
210.1704,35668.40530188802
212.4015,35273.49389709858
214.632,34880.146139364
216.862,34497.62834990783
219.0915,34111.00650115215
221.3205,33721.746220542795
223.549,33335.8127944155
225.777,32952.47117188858
228.0044,32565.985968722205
230.2314,32188.82147115186
232.4578,31803.241639753192
234.6837,31421.91011321365
236.909,31043.19021218828
239.1339,30642.144943113068
241.3582,30289.537001992096
243.582,29890.92877840803
245.8053,29533.68235904818
248.0281,29178.10953169055
250.2503,28803.971788776333
252.472,28442.93033096561
254.6932,28078.996070878806
256.9139,27724.529636707055
259.134,27366.941375851537
261.3536,27012.741358468127
263.5727,26658.289381043338
265.7912,26318.744969936262
268.0092,25966.66738492313
270.2267,25618.565622592738
272.4436,25282.498419867217
274.6601,24931.474257483052
276.8759,24602.851363351743
279.0913,24264.737716070085
281.3061,23929.79104820638
283.5204,23592.018849681546
285.7341,23261.428371118658
287.9473,22927.976627220552
290.16,22607.170400075855
292.3721,22297.21624249342
294.5837,21973.77048121042
296.7947,21655.439219991924
299.0052,21341.728342865295
301.2152,21026.643517303564
303.4246,20717.940197362506
305.6334,20413.123626831446
307.8418,20100.448842320395
310.0495,19797.97067630814
312.2568,19495.99376026907
314.4635,19194.17252769784
316.6696,18897.611217129182
318.8752,18591.463875156158
321.0802,18311.68435939568
323.2847,18015.5763415501
325.4887,17732.193310204937
327.692,17446.88857378997
329.8949,17158.86526341307
332.0972,16879.176335713244
334.2989,16595.574575740844
336.5001,16322.562599754463
338.7007,16047.292858057
340.9008,15774.167637725703
343.1003,15509.83906536494
345.2992,15244.609109837438
347.4976,14972.879584907583
349.6955,14711.752151893648
351.8927,14448.3783223852
354.0895,14184.359460854255
356.2856,13938.696787289111
358.4812,13691.391379834487
360.6763,13436.944177248188
362.8707,13185.505981374117
365.0646,12940.427459686762
367.258,12697.109147805575
369.4508,12451.001451945747
371.643,12212.504651351432
373.8346,11978.418900756747
376.0257,11741.594232770818
378.2162,11514.280560218562
380.4062,11280.027678508988
382.5956,11050.935267908353
384.7844,10835.602895882643
386.9726,10615.280019388541
389.1603,10394.115987026715
391.3474,10144.810041245102
393.5339,9961.961320550516
395.7199,9752.718862001682
397.9052,9549.431603037745
400.09,9345.148383570668
402.2743,9134.717948018122
404.4579,8933.93894734633
406.641,8734.559941174375
408.8235,8537.429399781984
411.0054,8339.045706103338
413.1868,8142.7571576983755
415.3675,7945.261968736624
417.5477,7758.608271960024
419.7273,7569.244120657982
421.9064,7383.817490533838
424.0848,7205.526281598512
426.2627,7020.268320024734
428.4399,6844.441359930024
430.6166,6672.093085229186
432.7928,6499.021111392671
434.9683,6330.172987170001
437.1432,6161.146196320544
439.3176,5996.28815930197
441.4914,5837.446234960531
443.6645,5672.71772217963
445.8371,5508.299861468229
448.0091,5358.889836608163
450.1806,5200.934776298338
452.3514,5051.5317556487935
454.5216,4895.127797760266
456.6913,4758.869875218174
458.8603,4612.254911656717
461.0288,4475.429783121392
463.1967,4330.441319535144
465.3639,4192.63630606667
467.5306,4053.8114845802775
469.6967,3928.9135550139254
471.8622,3793.789176767481
474.0271,3665.0849699516693
476.1914,3533.1975167393975
478.3551,3409.273362652755
480.5182,3291.8590178818777
482.6807,3176.250958524208
484.8426,3062.895627758633
487.0039,2946.489437001561
489.1647,2824.228767040462
491.3248,2714.9599691979383
493.4843,2610.179366554301
495.6432,2505.433255040334
497.8015,2394.1679044850753
499.9592,2289.8295596632233
502.1163,2188.064441407849
504.2728,2094.318747653735
506.4287,2011.7386544550172
508.5839,1915.0703169226763
510.7386,1821.8598700503135
512.8927,1721.1034296808066
515.0461,1642.2970934384648
517.199,1556.6869417366252
519.3512,1476.0190385657188
521.5029,1389.0894323493485
523.6539,1319.7441567509668
525.8043,1243.979231543155
527.9541,1165.4406633010658
530.1033,1097.9744461601222
532.2519,1033.4765626013614
534.3999,963.3429841261386
536.5472,898.2196719010462
538.694,836.3525774592854
540.8401,773.287643351905
542.9856,712.3208037664881
545.1305,651.0479851577402
547.2748,598.6151068571708
549.4185,545.8680816858177
551.5615,495.69684229975974
553.704,449.83586813289
555.8458,406.8646866076306
557.987,369.95833128601225
560.1276,328.3877711517998
562.2675,288.17027930500626
564.4069,247.4698482517706
566.5456,213.1975916770898
568.6837,181.46215104215662
570.8212,151.1700379641843
572.958,122.32595125351509
575.0942,97.98307953173207
577.2299,70.49338938412257
579.3648,58.9578685450324
581.4992,38.32680051974603
583.6329,19.849879824403615
585.766,-4.923581909621134
587.8985,-27.594471351265383
590.0304,-64.26362598293053
592.1616,-74.98160761826148
594.2922,-89.5983360773389
596.4222,-98.5629821139155
598.5515,-116.72382139450201
600.6802,-123.17814494142658
602.8083,-130.17207770609093
604.9358,-139.30051409031876
607.0626,-150.45704807691072
609.1888,-162.23388203656214
611.3144,-166.37171527405008
613.4393,-171.45962637766934
615.5636,-173.9850318823519
617.6873,-174.98363544135645
619.8103,-180.139402597546
621.9327,-178.58455080728163
624.0544,-173.5994979343377
626.1756,-174.5128777828868
628.2961,-173.4515898982063
630.4159,-176.14079044196842
632.5351,-173.8539027945153
634.6537,-171.0125906897083
636.7716,-176.13678106095176
638.8889,-171.44469242590276
641.0056,-166.4527836957932
643.1216,-160.57580104941007
645.237,-156.17682780222822
647.3518,-142.76734311751352
649.4659,-136.00726595203014
651.5793,-125.35508901680441
653.6922,-122.1179463103399
655.8043,-113.65171953380195
657.9159,-110.5110704300896
660.0268,-101.94952536145865
662.137,-91.11950668459758
664.2466,-85.07241828037513
666.3556,-72.80875374584866
668.4639,-65.32815680461499
670.5716,-47.27954382081225
672.6786,-42.511830505267426
674.785,-29.073932095998316
676.8907,-15.914763405868143
678.9958,3.4167610430449713
681.1002,11.871726887773548
683.204,16.601219731237506
685.3072,33.40632505765825
687.4097,53.03812818534061
689.5115,66.09771409851965
691.6127,86.68616725110769
693.7132,105.65457143609092
695.8131,96.25400957962847
697.9123,129.485563551425
700.0109,143.4003142586589
702.1089,167.04934131368645
704.2061,187.3837228948687
706.3028,201.0045355101247
708.3987,227.86285379357287
710.4941,251.40975036931923
712.5887,268.9962955828014
714.6827,283.323557265423
716.7761,314.1426005586545
718.8688,329.9544877707667
720.9608,349.36027806867787
723.0522,369.8110273197235
725.1429,398.30778789765463
727.233,423.65160847808875
729.3224,448.6935337536124
731.4112,474.134604180319
733.4993,498.0258557273555
735.5867,525.7183196225888
737.6735,549.563022113638
739.7596,576.410984190974
741.845,607.5632213494828
743.9298,633.620743319967
746.014,663.43455375763
748.0974,683.5056499814746
750.1802,719.2350226761919
752.2624,752.5236556914606
754.3439,778.3225256846345
756.4247,806.2826017878542
758.5048,846.90484535008
760.5843,873.8402096574428
762.6631,909.8896395270494
764.7413,944.9040710376285
766.8188,974.8844311690773
768.8956,1010.3316374523056
770.9718,1045.2465976694075
773.0473,1081.6802094992454
775.1221,1117.5833601681734
777.1962,1152.0569260858247
779.2697,1189.1017724860358
781.3426,1210.568753082116
783.4147,1265.7087096963878
785.4862,1305.8724720455502
787.557,1339.960857189275
789.6271,1380.2746691285065
791.6966,1426.0146984646344
793.7654,1459.6317219962875
795.8335,1505.5765022620253
797.901,1545.3497872040898
799.9678,1585.9523097089477
802.0339,1628.2347872096143
804.0993,1662.1479212795748
806.1641,1716.3923972100383
808.2282,1760.6688836707617
810.2916,1801.0780321675775
812.3544,1855.4204765996765
814.4164,1890.0468328554853
816.4778,1933.4076982693005
818.5385,1984.4036512749954
820.5986,2032.6352509723947
822.658,2077.253036617316
824.7166,2133.657527139214
826.7747,2172.24922069507
828.832,2216.8785941052993
830.8886,2278.696102467882
832.9446,2330.2021787120393
834.9999,2349.447232980099
837.0545,2416.3316521124143
839.1085,2484.4557994549396
841.1618,2530.7200141903595
843.2143,2539.6746106567807
845.2662,2585.7198778851234
847.3175,2680.206079509604
849.368,2662.1834533072106
851.4179,2787.402210252927
853.467,2793.71253469988
855.5155,2881.2645831272384
857.5633,2894.958484077026
859.6105,2928.9443372786773
861.6569,3003.4222135120726
863.7027,3019.392154267647
865.7478,3095.6041710016143
867.7922,3149.908244976308
869.8359,3243.5543264981097
871.8789,3244.642334374308
873.9212,3310.7721549766793
875.9629,3397.793642230594
878.0039,3457.406616953711
880.0441,3509.3608659857855
882.0837,3568.106141592514
884.1226,3630.792160946039
886.1609,3696.618605537449
888.1984,3732.2851205499173
890.2352,3835.591314200501
892.2714,3844.6867573834315
894.3069,3940.120982637054
896.3416,3975.043484052825
898.3757,4031.7037163210553
900.4091,3975.4010943816465
902.4418,4195.884992857507
904.4739,4201.804746617614
906.5052,4276.30964857214
908.5358,4303.9989496132475
910.5658,4338.52185787003
912.595,4398.027538431656
914.6236,4226.115113002095
916.6515,4624.483659305115
918.6786,4353.9322128033455
920.7051,4555.509762714602
922.7309,4527.665254717373
924.756,4678.197588935123
926.7804,4634.605620214672
928.8041,4381.58815662087
930.8272,4752.643959872577
932.8495,4853.471747872754
934.8711,4693.020190997937
936.892,4541.887911089914
938.9123,4783.023483060344
940.9318,4679.375436402042
942.9506,4745.292252777603
944.9688,4830.122367055912
946.9862,4323.464166652964
949.003,4690.415990683556
951.019,4181.576135027899
953.0344,4399.942848662053
955.0491,4363.214338746293
957.063,4665.738768441508
959.0763,4853.664257276461
961.0888,4446.938878122579
963.1007,4943.41065531467
965.1119,5025.027568718193
967.1223,4690.837548764495
969.1321,5240.638475634689
971.1412,4734.878182601526
973.1495,4623.654450531401
975.1572,4897.165012941943
977.1641,4810.707557114278
979.1704,4856.129721357909
981.1759,4976.9790958753
983.1808,4709.853222307633
985.1849,4876.599592526363
987.1884,5150.565651304423
989.1911,5514.948794648852
991.1932,4774.596367061
993.1945,5064.355657892767
995.1951,5389.073908750142
997.1951,4985.948310595544
999.1943,5008.376000500706
1001.1928,4960.854065677864
1003.1906,5200.429543255559
1005.1877,4703.299420753836
1007.1841,4637.610633688462
1009.1798,4772.9600705422345
1011.1748,4819.144573421894
1013.1691,4749.560936704584
1015.1627,3482.35590657602
1017.1556,4162.676181726347
1019.1477,4397.3684260222
1021.1392,3903.0792617034604
1023.1299,3034.90526703636
1025.12,3816.1929812563394
1027.1093,3432.7889132498167
1029.0979,3534.5395337413065
1031.0859,3573.0412791274503
1033.0731,2888.140550459524
1035.0596,3273.5337130584376
1037.0454,3124.367103363744
1039.0304,2785.2370250796594
1041.0148,2021.2897506667796
1042.9985,2201.371524733353
1044.9814,2831.178571674769
1046.9636,1981.2570938727513
1048.9452,2217.2532653972085
1050.926,2092.213240505531
1052.9061,2127.0831512826044
1054.8855,2272.459108891235
1056.8642,1925.3372032234183
1058.8421,1777.5635014466461
1060.8194,1948.6340514750336
1062.7959,1644.5448834470953
1064.7717,2139.8420080150318
1066.7469,1969.0714193855747
1068.7213,2035.629090367096
1070.695,1791.510974077275
1072.6679,1436.9630032775458
1074.6402,1801.1810928142731
1076.6117,1488.1111431641839
1078.5826,1568.799036792232
1080.5527,1672.8906412822907
1082.5221,1482.6318085302773
1084.4908,1870.0183737032567
1086.4587,1818.8461571419975
1088.426,2007.4609604870784
1090.3925,1930.5585671906883
1092.3584,1958.9347406303787
1094.3235,1510.2352248781608
1096.2879,1486.1557444166756
1098.2515,1619.3920086262733
1100.2145,1548.1397120257534
1102.1767,1606.5445329400318
1104.1382,1863.3021342126085
1106.099,1957.108162621611
1108.0591,2030.0082463121726
1110.0185,1719.647993858358
1111.9771,2271.2229935341893
1113.9351,1842.0788164172263
1115.8923,1523.3610108728317
1117.8488,1117.2651068456107
1119.8045,719.0866190465385
1121.7596,834.4210510139237
1123.7139,579.9638990952881
1125.6675,676.6606512939034
1127.6204,794.1567898134599
1129.5726,579.9977900910526
1131.524,751.6791196221966
1133.4748,809.1962401024794
1135.4248,641.5446057106819
1137.3741,660.569662533635
1139.3226,655.2668502427478
1141.2705,659.4316019037506
1143.2176,435.35934402977
1145.164,458.49549653960275
1147.1097,503.2854749984617
1149.0546,528.7746903866428
1150.9989,570.458548651608
1152.9424,367.18245045310323
1154.8852,319.84179074629355
1156.8272,172.88196081459319
1158.7686,299.6983487429825
1160.7092,43.38634088766412
1162.6491,-35.80867939212476
1164.5883,172.40867082899786
1166.5267,179.98413220509246
1168.4644,356.7634436661101
1170.4014,522.0423423422035
1172.3377,857.4665617959035
1174.2732,1137.7818303693712
1176.2081,1311.7838678300686
1178.1421,1503.2683825676795
1180.0755,1860.631069854062
1182.0082,1762.1176099284494
1183.9401,1809.5736644237404
1185.8713,1582.1948773517142
1187.8017,1431.8768746284331
1189.7315,1307.0152663480549
1191.6605,944.4056482860105
1193.5888,613.6936031475634
1195.5163,572.4247041939889
1197.4432,458.9945185496108
1199.3693,462.8986076145302
1201.2947,289.7325281989397
1203.2193,310.84183248403133
1205.1432,268.7720697537152
1207.0664,309.7687861834711
1208.9889,303.87752526113036
1210.9106,326.1438273768508
1212.8316,302.8632298820521
1214.7519,345.2312668667146
1216.6715,313.7934693922289
1218.5903,330.7453650676689
1220.5084,305.1324783642267
1222.4257,398.4003304456419
1224.3424,259.04443942438957
1226.2583,285.4603194289448
1228.1735,434.49348199736414
1230.0879,379.1394358131365
1232.0016,549.2436852148676
1233.9146,553.3017307497794
1235.8269,469.90906747266854
1237.7384,399.261184905321
1239.6492,190.70356787044147
1241.5592,145.33169719814032
1243.4686,45.39105181155173
1245.3772,28.37710918049561
1247.285,-28.414653679108596
1249.1922,-90.83876003507612
1251.0986,-13.04944929285557
1253.0042,-86.05005337871262
1254.9092,10.806226145097753
1256.8134,54.117047356339754
1258.7169,287.73006822478055
1260.6196,439.04294617902633
1262.5216,743.8533357703927
1264.4229,746.9088871597778
1266.3234,970.1572430696251
1268.2232,1103.4460387532963
1270.1223,1078.622899762573
1272.0207,1106.435440614834
1273.9183,1081.3312650412263
1275.8151,1039.6579657085676
1277.7113,968.4131244703822
1279.6067,860.9443127836421
1281.5014,783.8490924212019
1283.3953,863.9250165465419
1285.2885,890.6196304846235
1287.181,887.330470921188
1289.0727,1070.5050656357926
1290.9637,1113.6909335347445
1292.854,1281.7855828192842
1294.7435,1422.2365105537829
1296.6323,1577.9912009847976
1298.5204,1849.5471241365449
1300.4077,2050.7517342533392
1302.2943,2178.802467084024
1304.1802,2345.7467378699585
1306.0653,2210.631940064515
1307.9497,2000.1554436635925
1309.8333,1954.3145965568037
1311.7162,1950.3567266322352
1313.5984,2073.979142234828
1315.4798,2100.279132205993
1317.3605,2199.4039646473757
1319.2405,2360.9508866578253
1321.1197,2372.9671233422123
1322.9982,2255.349876195891
1324.876,2366.896322984576
1326.753,2294.503618920484
1328.6293,2352.568895546872
1330.5048,2465.5892614619806
1332.3796,2379.5618017383895
1334.2537,2435.1835767927696
1336.127,2412.4016232462163
1337.9996,2429.012953367972
1339.8714,2451.3645553032984
1341.7426,2368.453392907337
1343.6129,2412.3264055216277
1345.4826,2448.8305088031775
1347.3515,2506.312594285744
1349.2196,2474.969529014801
1351.087,2594.248154972709
1352.9537,2607.645289392138
1354.8197,2800.7577235632925
1356.6849,3078.232222699924
1358.5493,3095.915524008218
1360.4131,3156.3043339120777
1362.276,3147.945327876252
1364.1383,3099.5851498024567
1365.9998,2864.270412112972
1367.8606,2570.497696234248
1369.7206,2307.5135549500774
1371.5799,2192.8645153392936
1373.4384,2006.9470814055894
1375.2962,1921.1577352240565
1377.1533,1679.1429388003307
1379.0096,1281.649134928506
1380.8652,1061.6227496112406
1382.7201,911.6601960347252
1384.5742,637.7578767688901
1386.4275,395.662185267116
1388.2802,248.1695086051841
1390.132,178.7262299022841
1391.9832,233.77872979591484
1393.8336,57.723387136320525
1395.6832,27.80657843598601
1397.5322,-13.775320369837573
1399.3803,-7.125933623960009
1401.2278,-101.84874805376603
1403.0745,-77.54717919853647
1404.9204,-125.17362512859836
1406.7656,-30.879709217941127
1408.6101,-69.61580435606447
1410.4538,-61.33197494420165
1412.2968,-44.62758992171439
1414.139,-11.201405521533161
1415.9805,140.54826785300975
1417.8213,157.42323170058808
1419.6613,274.2752861144363
1421.5006,447.0562296135504
1423.3391,715.6178579742009
1425.1769,971.5119625020961
1427.0139,1506.9403273467797
1428.8502,2118.8047269426716
1430.6858,2636.3569206547836
1432.5206,2993.0986466600953
1434.3547,3255.5316167720375
1436.188,3367.707512873065
1438.0206,3349.777984290329
1439.8524,3182.1446466739144
1441.6835,3169.8090821761143
1443.5139,3036.6228411278353
1445.3435,2985.387442161904
1447.1724,3035.5543735449464
1449.0005,2932.9750936897253
1450.8279,2889.4010306534765
1452.6545,2919.0835831637232
1454.4804,3011.474121053954
1456.3056,2992.423984966852
1458.13,2990.834485430394
1459.9536,2865.7069030483144
1461.7766,2590.7924885160282
1463.5987,2234.192463871892
1465.4202,1907.0580252463915
1467.2409,1554.090346428111
1469.0608,1383.3905821350345
1470.88,1192.9098715442851
1472.6984,998.8993399990868
1474.5161,781.0101009135942
1476.3331,648.5932577129897
1478.1493,582.1499060123533
1479.9648,606.5311349408257
1481.7795,527.6380278060533
1483.5935,503.57166185037204
1485.4067,469.73310903978927
1487.2192,508.1234363045769
1489.031,454.7937058777061
1490.842,452.49497491092916
1492.6522,504.9782960080738
1494.4618,465.144717248033
1496.2705,530.0952816599347
1498.0785,525.7310276214557
1499.8858,499.70298820934477
1501.6924,467.2621912430295
1503.4981,525.0596595449169
1505.3032,527.0464112647933
1507.1075,540.4234593018591
1508.911,511.14181128484415
1510.7138,543.052469438262
1512.5159,480.1064308752284
1514.3172,539.4046872783329
1516.1178,466.04822552912447
1517.9176,459.18802711509124
1519.7166,448.6250688632754
1521.515,386.2103230088542
1523.3126,461.79475730075865
1525.1094,438.47933562582693
1526.9055,403.46501725298003
1528.7008,395.5527570663289
1530.4954,292.8435059153817
1532.2893,314.33821069411715
1534.0824,215.98781536808383
1535.8747,353.69326075946447
1537.6663,312.8054855305636
1539.4572,301.37542480678894
1541.2473,312.70401058550124
1543.0367,329.1921718503072
1544.8253,290.89083445780125
1546.6132,347.7509209726595
1548.4003,283.07335105066886
1550.1867,363.15904087010495
1551.9723,377.5589037785321
1553.7572,465.1238494919271
1555.5414,480.9547839506886
1557.3247,524.7026084439822
1559.1074,640.368219451444
1560.8893,685.2025082056862
1562.6705,766.6063595356572
1564.4509,852.5306514182776
1566.2305,925.6762541644348
1568.0094,1062.5440295596818
1569.7876,1139.9348301328282
1571.565,1176.8994977872644
1573.3417,1207.7388630270398
1575.1176,1247.1537445871982
1576.8928,1297.3949491254207
1578.6672,1174.8632708278674
1580.4409,1099.9594909067491
1582.2138,995.7343788256476
1583.986,937.23869304857
1585.7575,901.5731820822039
1587.5282,881.6885850608669
1589.2981,842.1356321031599
1591.0673,803.815044510804
1592.8358,872.0275351641685
1594.6035,898.1238089054896
1596.3704,875.9545618567354
1598.1366,906.6204811586394
1599.9021,949.2222451923953
1601.6668,976.5105232730057
1603.4308,1062.685975223274
1605.194,1163.6992511009012
1606.9564,1256.4509903367398
1608.7182,1390.8418207246832
1610.4791,1551.5223574941301
1612.2394,1740.4432019660817
1613.9988,1913.7049399463103
1615.7576,2148.658139836174
1617.5156,2363.1533508999782
1619.2728,2655.241100915475
1621.0293,2770.871894028882
1622.785,2794.796207834028
1624.54,2694.514492216029
1626.2942,2605.077169112057
1628.0477,2348.7846335141403
1629.8005,2152.0372543635494
1631.5525,1967.9853771137132
1633.3037,1844.8793256977187
1635.0542,1689.3194043687909
1636.804,1587.705898931381
1638.553,1533.9390782967312
1640.3013,1522.2691954990623
1642.0488,1481.8464882332082
1643.7955,1573.3211789713387
1645.5416,1600.84347536715
1647.2868,1736.513569341143
1649.0313,1784.3816368053958
1650.7751,1912.8478363068461
1652.5181,2103.2623085486484
1654.2604,2248.725175105479
1656.0019,2575.686536519399
1657.7427,2890.946470845236
1659.4828,3191.8050303809578
1661.222,3357.812238515078
1662.9606,3415.2180867180614
1664.6984,3316.872532882244
1666.4354,3008.0255007478227
1668.1717,2552.9768808862427
1669.9072,2070.826533788735
1671.642,1724.9742944167738
1673.3761,1449.1699770235646
1675.1094,1161.713378612585
1676.8419,990.0042816956047
1678.5737,859.9924571672782
1680.3048,745.8776660222138
1682.0351,657.4096606551211
1683.7646,513.3881860019319
1685.4934,478.4129804244767
1687.2215,482.58377715072857
1688.9488,384.95030462450086
1690.6754,316.2122864638077
1692.4012,343.41944243713806
1694.1263,358.12148915087164
1695.8506,326.31813977720594
1697.5742,305.0591039071369
1699.297,306.9440878684727
1701.0191,246.77279493845708
1702.7404,236.4449253249113
1704.461,185.51017676792617
1706.1808,136.0182446431536
1707.8999,146.36882247115864
1709.6182,132.01160241231992
1711.3358,116.64627516335531
1713.0527,89.27253010089044
1714.7688,52.290055435070826
1716.4841,75.74853848333805
1718.1987,96.6476660402368
1719.9126,78.18712414281617
1721.6257,47.366597861651826
1723.338,31.78577148543627
1725.0496,4.594328829211008
1726.7605,38.04195339017315
1728.4706,14.87832861959032
1730.18,-33.19686241167801
1731.8886,-21.883936781559896
1733.5964,-19.782879931321077
1735.3036,5.806541318277596
1737.0099,30.88475777745407
1738.7156,24.152200198375795
1740.4204,-32.14070097563672
1742.1246,0.05648445722545148
1743.8279,13.494507784365851
1745.5306,25.07412029263287
1747.2325,23.9460731339459
1748.9336,-17.938882790527714
1750.634,-5.479996819063672
1752.3336,19.423660919484973
1754.0325,24.773075041423
1755.7307,27.769229968838772
1757.4281,79.16310987606994
1759.1247,103.15569865977523
1760.8206,88.59797942499063
1762.5158,99.94093424520179
1764.2102,103.83554430793447
1765.9039,53.48278980129908
1767.5968,80.93364987506357
1769.289,85.4391031441628
1770.9804,127.05012741421524
1772.6711,148.36769963644474
1774.361,127.54279549160128
1776.0502,171.07638917674558
1777.7386,143.069453613527
1779.4263,165.12296001284267
1781.1132,177.8878781549065
1782.7994,161.71517616869824
1784.4849,187.3558204043511
1786.1696,183.01077559483383
1787.8535,210.5810045995786
1789.5367,158.91746844790396
1791.2192,233.12112606329902
1792.9009,184.89293478007676
1794.5818,229.083849601353
1796.2621,220.0948236813001
1797.9415,237.87680788328362
1799.6202,236.33075086971985
1801.2982,224.4575989242785
1802.9755,241.90829596731965
1804.6519,274.833783674625
1806.3277,263.4350013029034
1808.0027,241.26288536052562
1809.6769,249.46836972152232
1811.3504,249.20238584730942
1813.0231,276.2658627046185
1814.6951,303.9597267681602
1816.3664,339.43490174999533
1818.0369,331.4923083225949
1819.7067,341.0828637641025
1821.3757,365.9074820377282
1823.044,376.41707369587493
1824.7115,363.41254563186703
1826.3783,321.89480097487285
1828.0443,305.8647392199309
1829.7096,349.9732566431394
1831.3741,383.7212464619515
1833.0379,359.2095983941126
1834.701,347.38919832015927
1836.3633,393.6609285285358
1838.0248,417.4756678337999
1839.6856,415.93429111391015
1841.3457,464.887669072079
1843.005,426.1866682521795
1844.6636,457.28215054921384
1846.3214,478.0749735963309
1847.9785,485.115990453869
1849.6349,474.15604940142475
1851.2904,475.4459938674372
1852.9453,505.38666253878364
1854.5994,500.8788893478886
1856.2528,564.9235031733187
1857.9054,518.4713278848649
1859.5572,569.1231817030985
1861.2083,575.2298776638763
1862.8587,603.6422231118377
1864.5084,581.6610196393431
1866.1572,589.6870628023353
1867.8054,586.4211423401484
1869.4528,571.7640420952648
1871.0994,585.2665400459591
1872.7453,566.2294084528767
1874.3905,606.3034137240102
1876.0349,600.9893166050679
1877.6786,642.5378717787225
1879.3215,672.4498279177678
1880.9637,679.375927269617
1882.6051,687.9169053572059
1884.2458,678.9234909097049
1885.8858,690.7964057771314
1887.525,680.2863650202562
1889.1634,636.1440767919048
1890.8011,634.820242442047
1892.4381,664.9655569592251
1894.0743,661.6307089837737
1895.7098,658.7163805063901
1897.3446,681.7232469014543
1898.9786,681.4519769561994
1900.6118,687.1032326406312
1902.2443,661.3276691102383
1903.8761,653.0759346494779
1905.5071,648.9486709295361
1907.1374,638.6965130908429
1908.7669,610.1200897843501
1910.3957,648.4200232740532
1912.0237,583.2469297227599
1913.651,603.301418809071
1915.2776,609.8840943791347
1916.9034,581.8955542460953
1918.5285,566.5863901242592
1920.1528,552.0571879089857
1921.7764,597.0585278297676
1923.3992,560.990984595539
1925.0213,501.4551269446438
1926.6427,513.001518005527
1928.2633,510.2807158920896
1929.8832,529.6932735882256
1931.5023,511.089738975028
1933.1207,495.3206546366673
1934.7383,500.38655804641894
1936.3552,508.48798172435454
1937.9714,491.97545318668745
1939.5868,474.5494948647556
1941.2015,446.6606242701491
1942.8154,427.30935416897773
1944.4286,410.4461928607452
1946.041,407.2716443718764
1947.6528,384.78620862432945
1949.2637,393.490381467358
1950.8739,373.8346549023463
1952.4834,377.96951699578676
1954.0921,398.49545207582923
1955.7001,394.312940690932
1957.3074,412.322459404606
1958.9139,378.97448083723793
1960.5197,359.8194734860008
1962.1247,338.357902058322
1963.729,336.4902276634439
1965.3325,316.8169080270254
1966.9353,308.03839750982297
1968.5374,307.45514730444484
1970.1387,280.067605523107
1971.7393,281.5762172034865
1973.3392,305.6814245825917
1974.9383,283.58366708167705
1976.5366,247.2333810651926
1978.1342,270.83100006174755
1979.7311,263.8769551276291
1981.3273,285.2716746108126
1982.9227,277.5655842205124
1984.5173,258.1091068132464
1986.1112,238.20266246986648
1987.7044,228.49666869014254
1989.2968,254.44154059181528
1990.8885,234.9376910076644
1992.4795,243.4355302260701
1994.0697,230.0354661860256
1995.6592,254.93790439219447
1997.2479,241.59324804888092
1998.8359,237.3018978110158
2000.4232,244.56425191760172
2002.0097,213.030706234631
2003.5955,213.65165418246943
2005.1805,220.12748705116792
2006.7648,219.45859399427718
2008.3484,225.99536196407098
2009.9312,253.48817571824839
2011.5133,239.93741775455055
2013.0946,246.24346803584558
2014.6752,224.55670412563632
2016.2551,236.92750112500835
2017.8342,228.5062318894761
2019.4126,213.24326690528505
2020.9902,176.78897437363048
2022.5672,199.04372036327914
2024.1433,184.6578691751165
2025.7188,198.93178311959127
2027.2935,189.4658226605752
2028.8674,179.26034627263834
2030.4406,192.2157105356946
2032.0131,172.18227023706459
2033.5849,144.76037824191735
2035.1559,185.3003856936066
2036.7261,200.95264228788255
2038.2957,193.56749586749902
2039.8645,185.54529226568775
2041.4325,221.08637538000767
2042.9998,197.79108725257538
2044.5664,186.45976771464302
2046.1323,191.69275461955294
2047.6974,187.29038395604766
2049.2617,182.80298979594954
2050.8254,219.9309043381836
2052.3883,237.72445795365275
2053.9504,204.1839788139514
2055.5118,207.30979271343494
2057.0725,186.8522234046286
2058.6325,189.2615925669652
2060.1917,204.48822001135704
2061.7502,197.63242365610495
2063.3079,181.44451937462873
2064.8649,180.22482106402822
2066.4212,179.67364080696098
2067.9767,177.89128888384585
2069.5315,177.87807377836543
2071.0856,175.98430219529655
2072.6389,150.31027906063719
2074.1915,112.90630754055383
2075.7433,82.32268929812017
2077.2945,115.00972486734281
2078.8448,114.31771395900978
2080.3945,105.8969551338123
2081.9434,113.3477458092766
2083.4916,122.57038234395077
2085.039,120.41515996291855
2086.5857,119.53237266556425
2088.1317,153.77231324712557
2089.677,146.2352733075204
2091.2215,139.32154290894505
2092.7652,134.68141065124473
2094.3083,131.36516374105486
2095.8506,167.07308803820342
2097.3921,194.25546808886975
2098.933,161.11258676850775
2100.4731,181.09472501001983
2102.0124,188.85216213518652
2103.5511,173.43517565485126
2105.089,172.94404119133105
2106.6261,197.07903263259504
2108.1626,181.29042213718276
2109.6983,194.4284798928402
2111.2332,207.74347427441353
2112.7675,208.53567171247232
2114.301,198.20533656015868
2115.8337,209.25273108525653
2117.3657,202.4281155735116
2118.897,197.58174821814828
2120.4276,190.11388518811327
2121.9575,179.17478067653428
2123.4866,206.5146869754135
2125.0149,179.4838545850016
2126.5426,173.63253194040772
2128.0695,181.21096568190478
2129.5956,183.8694007134436
2131.1211,213.15808012687012
2132.6458,211.17724517534043
2134.1698,188.4771349804323
2135.693,200.95798655195904
2137.2155,190.4200350149622
2138.7373,180.21351348491226
2140.2584,200.7886531730801
2141.7787,216.94568348860776
2143.2983,196.08483183275166
2144.8171,180.7063234373163
2146.3353,190.61038157327312
2147.8527,176.44722770452245
2149.3693,213.56708138886825
2150.8853,182.3701604196449
2152.4005,167.40668045452185
2153.9149,176.02685532747455
2155.4287,187.43089719840646
2156.9417,210.06901646696497
2158.454,210.24142165848752
2159.9655,194.64831919762946
2161.4764,191.58991340663306
2162.9865,189.66640666126386
2164.4958,195.87799942138554
2166.0045,173.92489025020404
2167.5124,197.85727575214787
2169.0195,179.62535079240388
2170.526,212.3793082575885
2172.0317,216.01933923807064
2173.5367,208.04563270042672
2175.0409,197.75837545104332
2176.5445,225.4577522158561
2178.0473,201.29394574322032
2179.5494,192.96713652691687
2181.0507,204.12750304779365
2182.5513,209.4752218570302
2184.0512,208.46046746452885
2185.5504,193.53341228544286
2187.0488,169.79422665032598
2188.5465,179.49307895440506
2190.0435,175.7301358949626
2191.5397,173.80556237435303
2193.0353,167.2195215376396
2194.5301,159.67217479182636
2196.0241,164.61368187172502
2197.5175,178.84420091542324
2199.0101,175.86388841487587
2200.502,144.57289907360155
2201.9931,134.72138583648848
2203.4835,115.20950020269811
2204.9733,105.83739232417975
2206.4622,140.30521120079356
2207.9505,151.06310477402803
2209.438,111.91121958232543
2210.9248,112.89970065349917
2212.4109,94.12869189625053
2213.8962,113.29833609028537
2215.3809,125.25877507402402
2216.8648,125.96014955290593
2218.3479,119.70259897979486
2219.8304,97.08626154795365
2221.3121,116.51127425362029
2222.7931,106.07777312217877
2224.2733,92.93589301390057
2225.7529,85.38576772828128
2227.2317,78.27753013546135
2228.7098,98.36131225173267
2230.1872,79.38724531061234
2231.6638,95.10545956200531
2233.1397,74.26608446195314
2234.6149,102.56924851544409
2236.0894,95.36507948481358
2237.5632,96.45370410670876
2239.0362,77.08524816413683
2240.5085,68.50983647556586
2241.9801,62.97759308861987
2243.4509,68.63864136583015
2244.921,47.19310403995587
2246.3904,47.99110315737107
2247.8591,37.73276029252793
2249.3271,66.91819653996845
2250.7943,58.49753261691694
2252.2608,35.220888571414434
2253.7266,61.038383866536606
2255.1917,59.25013761314585
2256.656,56.55626831172867
2258.1197,57.10689387026923
2259.5826,59.20213163119479
2261.0447,68.2420983658676
2262.5062,43.87691025363711
2263.9669,58.456682791433195
2265.4269,83.63153103741479
2266.8862,90.25156946517473
2268.3448,78.51691171199491
2269.8026,86.72767051264691
2271.2598,68.53395781673407
2272.7162,68.7858847065836
2274.1719,88.33356157918206
2275.6268,78.0770981436608
2277.0811,101.3666032258152
2278.5346,106.0021848706765
2279.9874,105.13395010961631
2281.4395,97.01200491399322
2282.8908,70.33645420383073
2284.3414,97.80740192903886
2285.7914,93.32495133616521
2287.2406,82.23920469368295
2288.689,105.75026333681217
2290.1368,103.25822777838584
2291.5838,89.963197473734
2293.0302,113.51527084560712
2294.4758,85.51454541712246
2295.9206,79.81111757625331
2297.3648,78.90508285582928
2298.8082,107.99653599057092
2300.251,77.43557092615356
2301.693,104.82228052828668
2303.1343,111.75675688833053
2304.5748,92.48909104942868
2306.0147,97.31937293715691
2307.4538,123.39769155220984
2308.8922,94.72413492208398
2310.3299,101.79878984030438
2311.7669,105.02174215316063
2313.2031,97.0930766889569
2314.6387,97.81287722578327
2316.0735,78.98122657080785
2317.5076,77.49820655307121
2318.941,94.16389821180383
2320.3737,104.07838181125953
2321.8056,107.99173667405648
2323.2369,89.55404108202674
2324.6674,101.81537223709074
2326.0972,88.37580644563604
2327.5263,115.28541899589709
2328.9547,91.04428429235122
2330.3823,84.45247558663141
2331.8092,121.81006521992549
2333.2355,105.46712468889928
2334.661,110.67372427212194
2336.0858,104.37993319349334
2337.5098,110.08581957017668
2338.9332,115.0914504755392
2340.3558,113.54689188209068
2341.7778,103.35220861143443
2343.199,105.0074643497037
2344.6195,109.56272174951391
2346.0393,121.36804241340815
2347.4583,142.8734868483034
2348.8767,117.42911434743837
2350.2943,121.83498277532817
2351.7113,118.84114882219546
2353.1275,118.09766795991254
2354.543,126.55459447193971
2355.9578,124.91198146076567
2357.3718,105.56988076333346
2358.7852,108.72834296747715
2360.1978,108.93741760532794
2361.6098,114.94715312174503
2363.021,118.75759687221853
2364.4315,111.56879506276982
2365.8413,115.48079271183633
2367.2504,96.79363372217358
2368.6587,71.00736084173514
2370.0664,99.02201585054809
2371.4733,90.987639818567
2372.8795,91.6042728255361
2374.285,111.17195404132326
2375.6899,88.69072171975677
2377.0939,79.11061300294386
2378.4973,65.2816641460804
2379.9,75.35391061326209
2381.3019,58.77738721577225
2382.7032,72.25212801135694
2384.1037,95.47816646998854
2385.5035,58.10553533911843
2386.9027,58.484266411412136
2388.3011,93.61439089848318
2389.6987,71.89593942710417
2391.0957,72.12894168790535
2392.492,74.01342665256652
2393.8876,59.99942257147177
2395.2824,54.43695695487986
2396.6765,39.17605671305773
2398.07,48.21674821191664
2399.4627,47.95905742560353
2400.8547,50.30300984610676
2402.246,50.84863048583338
2403.6366,46.895943854166944
2405.0265,19.344973952000146
2406.4156,27.995744311269846
2407.8041,22.94827827048266
2409.1918,30.60259888818655
2410.5789,31.158728993463228
2411.9652,29.11669110937055
2413.3508,43.32650744737839
2414.7358,14.938199927791175
2416.12,32.50179003765152
2417.5035,34.7672991146228
2418.8863,26.484748171352294
2420.2684,25.90415787281927
2421.6497,17.1755486191596
2423.0304,12.598940551464693
2424.4104,11.574353639076435
2425.7896,18.451807725345134
2427.1682,8.43132253787644
2428.546,30.912917619762993
2429.9232,34.64661242978673
2431.2996,45.18242611759797
2432.6753,11.520377486386678
2434.0503,35.860484887521125
2435.4246,19.30276655716807
2436.7982,13.347240372896522
2438.1711,20.94392401924506
2439.5433,25.4428350472881
2440.9148,-6.356009201336747
2442.2856,11.797408360583177
2443.6557,11.403168316787742
2445.025,-0.4886488669544633
2446.3937,5.12203716109525
2447.7617,14.835311634275058
2449.1289,10.801259734708765
2450.4955,17.869966496165034
2451.8613,15.391516844404578
2453.2265,24.465995526489678
2454.5909,19.043487135570103
2455.9546,40.224076020136636
2457.3177,36.70784633824542
2458.68,22.99488184571328
2460.0416,48.735265931285994
2461.4025,37.42908175376124
2462.7627,24.67641198458432
2464.1222,37.12733892091137
2465.4811,54.38194461313833
2466.8392,45.64031074038667
2468.1966,57.40251843796068
2469.5533,62.36864838476458
2470.9093,67.68878068567619
2472.2645,53.91299482189015
2473.6191,70.69136959771731
2474.973,55.97398327834071
2476.3262,45.41091342202981
2477.6787,50.05223702731746
2479.0305,40.99803063862646
2480.3816,30.84837029986238
2481.7319,65.60333164495114
2483.0816,47.81298999933688
2484.4306,33.12742003243329
2485.7789,49.24669593552653
2487.1264,33.67089156862903
2488.4733,30.000080299290858
2489.8195,23.384335158354133
2491.165,43.12372887666197
2492.5097,38.66833395121421
2493.8538,32.16822244777677
2495.1972,26.873466045433815
2496.5398,19.234136101586955
2497.8818,31.20030370490349
2499.2231,35.27203975171187
2500.5637,30.39941482633867
2501.9035,23.382499160387397
2503.2427,46.221362681468236
2504.5812,19.366075083369196
2505.919,20.716705597666532
2507.256,30.32332326227788
2508.5924,27.335996907952904
2509.9281,25.954795062209996
2511.2631,24.329785979208737
2512.5974,17.86103765356347
2513.9309,16.798617836591347
2515.2638,19.042594101003942
2516.596,38.393033851528344
2517.9275,35.60000430246828
2519.2583,20.26357228419829
2520.5884,23.38380427109587
2521.9178,30.31076653490254
2523.2465,15.044525113524742
2524.5745,5.785145741761426
2525.9018,14.582694003966935
2527.2284,20.48723542664129
2528.5543,41.29883539046159
2529.8796,23.06755907123261
2531.2041,37.59347123177122
2532.5279,30.076636404220153
2533.851,54.91711874478733
2535.1735,35.914982108916774
2536.4952,56.97028980287996
2537.8163,55.13310477380264
2539.1366,42.003489399106456
2540.4562,51.281505504887264
2541.7752,57.067214497205896
2543.0935,61.66067726930896
2544.411,64.06195414377407
2545.7279,84.42110482657154
2547.0441,81.78818838305324
2548.3596,80.06326303436208
2549.6744,75.14638618376102
2550.9885,64.88761443388103
2552.3019,77.3370036358915
2553.6146,90.4446089920857
2554.9266,68.61048493138878
2556.2379,76.9346849782819
2557.5485,80.01726197114158
2558.8585,73.65826797899945
2560.1677,73.70775427071476
2561.4762,88.76577137856384
2562.7841,96.98236909774732
2564.0913,116.25759633581038
2565.3977,107.29150103047414
2566.7035,108.08412995688514
2568.0086,98.63552881727855
2569.313,124.99574223305035
2570.6167,106.76481383924192
2571.9197,107.392786020941
2573.222,122.9797000955873
2574.5236,116.52559630669793
2575.8246,121.83051366799145
2577.1248,119.44449002793408
2578.4244,127.21756201668677
2579.7232,138.89976506996618
2581.0214,136.04113335131387
2582.3189,153.04169963527193
2583.6157,159.25149533597641
2584.9118,152.92055033714269
2586.2072,159.69889292997595
2587.5019,152.0865498764756
2588.7959,153.73354634164843
2590.0893,165.5899059696403
2591.3819,165.8556508672582
2592.6739,169.8808014854103
2593.9652,165.81537661645143
2595.2557,170.05939335392895
2596.5456,161.16286713323916
2597.8348,160.5758116891875
2599.1234,162.64823914495219
2600.4112,172.73016001795713
2601.6983,173.97158319914433
2602.9848,169.0225158521548
2604.2705,170.43296340091638
2605.5556,173.85292957913407
2606.84,166.5324164161825
2608.1237,178.0214242029101
2609.4067,163.46995156484036
2610.689,154.0779953472843
2611.9707,158.74555076085426
2613.2516,166.32261147538475
2614.5319,151.10916957325435
2615.8115,153.00521547361677
2617.0903,141.7607380845343
2618.3685,155.87572478401944
2619.6461,157.70016153247752
2620.9229,152.58403273155864
2622.199,152.87732120591363
2623.4745,156.28000825435356
2624.7493,146.99207364691983
2626.0234,140.8634955908542
2627.2968,147.94425082347925
2628.5695,151.93431467348273
2629.8415,142.6336609901141
2631.1128,143.14226210328115
2632.3835,146.36008891655683
2633.6535,143.93711090209217
2634.9228,144.1732960684385
2636.1914,146.71861098477757
2637.4593,148.32302077855866
2638.7265,139.2864891100462
2639.9931,145.70897815627586
2641.259,140.99044870142097
2642.5242,139.83086007256543
2643.7887,128.08017018688815
2645.0525,134.53833556326254
2646.3156,130.3553114397605
2647.5781,135.2810517090711
2648.8398,138.16550896033186
2650.1009,122.40863442986893
2651.3613,142.11037797235576
2652.6211,147.47068821838093
2653.8801,142.9395123774275
2655.1385,141.61679618427615
2656.3961,131.10248394430937
2657.6531,144.09651854674394
2658.9094,140.34884156977114
2660.1651,140.60939315061887
2661.42,140.17811202302755
2662.6743,129.5049355146466
2663.9279,145.789799551344
2665.1808,169.83263876393812
2666.433,164.68338632535142
2667.6846,159.04197371017972
2668.9354,146.85833074618495
2670.1856,159.13238567070994
2671.4351,165.91406525251614
2672.6839,156.1532946690436
2673.9321,170.34999743859225
2675.1795,165.3040955179299
2676.4263,162.96550916032356
2677.6724,171.3841569660035
2678.9179,180.50995590554112
2680.1626,180.29282123567054
2681.4067,180.68266640802585
2682.6501,176.9294030713154
2683.8928,166.88294106742114
2685.1348,182.1931884689352
2686.3761,171.36005167961775
2687.6168,160.28343528130108
2688.8568,174.26324214221768
2690.0961,159.04937352776597
2691.3348,164.59172896071414
2692.5727,157.29020637333815
2693.81,151.69470205199787
2695.0466,150.0051107101517
2696.2826,150.02132554431228
2697.5178,155.1932382509417
2698.7524,154.82073902628917
2699.9863,161.0537165146725
2701.2195,161.04205781220298
2702.452,171.58564840445706
2703.6839,159.68437216659095
2704.9151,169.08811125790498
2706.1456,161.29674624085555
2707.3755,180.01015598701952
2708.6046,180.02821775500752
2709.8331,179.100807003329
2711.0609,179.02779739021253
2712.2881,198.1590607828798
2713.5145,189.89446725827497
2714.7403,203.88388491175374
2715.9654,211.0771799397271
2717.1899,221.92421649976723
2718.4136,234.32485663867647
2719.6367,245.22896018401616
2720.8591,249.8363846201014
2722.0809,265.29698497895583
2723.3019,265.8606137942429
2724.5223,277.87712094665585
2725.7421,285.99635365828226
2726.9611,266.11815637243944
2728.1795,265.5923706724832
2729.3972,266.7688354805882
2730.6142,252.69738706300564
2731.8306,243.02785901830157
2733.0462,234.06008241806717
2734.2612,193.3438859036171
2735.4756,192.87909577566575
2736.6892,182.6655364014896
2737.9022,160.05303021957366
2739.1145,153.99139784175009
2740.3262,130.2304582793222
2741.5372,126.42002900368016
2742.7475,109.10992618391037
2743.9571,98.64996472489952
2745.1661,99.08995844043511
2746.3744,91.92972015780492
2747.582,74.21906171339765
2748.7889,64.35779402430558
2749.9952,73.24572726543033
2751.2008,50.232670968095135
2752.4057,48.018433931167465
2753.61,42.25282445118796
2754.8136,52.33565034451385
2756.0165,42.066719004975084
2757.2188,31.945837303045664
2758.4204,39.522811688533466
2759.6213,25.447448291788987
2760.8215,39.81955284793548
2762.0211,32.43893083762259
2763.22,38.15538734330676
2764.4182,29.36872712305376
2765.6158,26.228754553377257
2766.8127,4.235273717104064
2768.009,15.288088434774181
2769.2045,15.887002484575532
2770.3994,19.58181949181676
2771.5936,-2.127657077064214
2772.7872,-4.991623951445945
2773.9801,-6.760256605412678
2775.1723,-18.933680646727225
2776.3639,-17.911954148187533
2777.5548,-17.29494603512353
2778.745,-9.132346292443799
2779.9346,-10.52367212854665
2781.1235,-8.71834951969231
2782.3117,-11.065699310656782
2783.4992,-1.4649552499047331
2784.6861,-12.115240539565548
2785.8723,-11.865663746866176
2787.0579,0.4847875922187086
2788.2428,-10.312755520305473
2789.427,-4.007162087279994
2790.6106,-0.047198087120477794
2791.7935,5.568410533305951
2792.9757,16.040938298639958
2794.1573,17.87165967783858
2795.3382,30.111848979451224
2796.5184,40.1627803333115
2797.698,47.67572756813502
2798.8769,74.25196411101115
2800.0551,81.09276291227252
2801.2327,90.799396179734
2802.4096,108.37313531028212
2803.5859,117.71525079281173
2804.7615,135.82701203248575
2805.9364,155.30968725731623
2807.1106,174.66454333704746
2808.2842,201.39284558832492
2809.4572,225.99585758115109
2810.6294,262.27484087159974
2811.801,294.9810547557877
2812.972,327.7157559070813
2814.1423,377.18019804903815
2815.3119,419.82563162805695
2816.4808,471.45330331873674
2817.6491,497.6644555974226
2818.8167,541.7103262259275
2819.9837,577.6421479894191
2821.15,633.8111482559632
2822.3157,673.4685486172039
2823.4807,707.2655643266758
2824.645,747.4534039032278
2825.8086,786.8332687930538
2826.9716,838.4063529678124
2828.134,880.5738425308323
2829.2957,914.5369152013786
2830.4567,940.1467398929808
2831.617,942.9044763737966
2832.7767,967.0112750105188
2833.9358,954.8182767407955
2835.0941,956.1266128321613
2836.2519,942.3874050039699
2837.4089,929.6017654143093
2838.5653,922.1207967973935
2839.7211,914.9955925914196
2840.8761,916.6272370133788
2842.0306,942.6168051303048
2843.1843,976.065362842962
2844.3374,1010.9739666259454
2845.4899,1064.8436631931968
2846.6417,1116.0754891489207
2847.7928,1192.9704704488836
2848.9433,1260.0296218880985
2850.0931,1329.7039463318756
2851.2422,1393.2944340452289
2852.3907,1459.5020619961344
2853.5385,1514.9277932196235
2854.6857,1558.2725761557087
2855.8323,1611.5373440951253
2856.9781,1656.2230147458822
2858.1233,1703.8304897006149
2859.2679,1751.6606539897298
2860.4118,1786.2643756053296
2861.555,1835.5925050229116
2862.6976,1875.0458748553297
2863.8395,1890.9252993595135
2864.9808,1916.7315740419353
2866.1214,1926.6154754998138
2867.2614,1948.7777611630531
2868.4007,1952.4191691954034
2869.5393,1953.490418272838
2870.6773,1970.5422075471424
2871.8146,1986.2252166351964
2872.9513,1976.3901054484616
2874.0874,1960.2875140361473
2875.2227,1967.0180626835622
2876.3574,1957.2323520731413
2877.4915,1932.7809632171402
2878.6249,1897.9144575554908
2879.7577,1878.633377200317
2880.8898,1849.238245284598
2882.0212,1842.1795661549795
2883.152,1842.057825665725
2884.2821,1793.4734912493025
2885.4116,1803.9770119176032
2886.5405,1788.0188187477825
2887.6686,1805.349324777228
2888.7962,1828.768925163139
2889.923,1827.077997009222
2891.0493,1830.1268991314946
2892.1748,1842.6159720751966
2893.2997,1842.1455380842997
2894.424,1856.865900976615
2895.5476,1884.3273461485019
2896.6706,1895.6801404276612
2897.7929,1933.6245317985208
2898.9145,1962.8607492887077
2900.0355,1972.8890025896055
2901.1559,2001.059481763991
2902.2756,2022.72235714575
2903.3946,2064.777779058176
2904.513,2079.4258775973376
2905.6308,2121.666762211525
2906.7479,2135.1505215547727
2907.8643,2149.377223064446
2908.9801,2162.4469128264063
2910.0953,2179.6596154327444
2911.2098,2182.965333851082
2912.3236,2179.8140492524462
2913.4368,2167.205720978211
2914.5494,2133.390286571613
2915.6613,2124.917661903831
2916.7725,2092.2877415121416
2917.8831,2057.8003986846475
2918.9931,2047.2554857865728
2920.1024,2020.7028346051388
2921.211,2005.742256455013
2922.319,1976.1735424438343
2923.4264,1962.8464636218202
2924.5331,1959.3607712774544
2925.6391,1963.6161970707562
2926.7445,1959.1624530681393
2927.8493,1958.9492316998533
2928.9534,1942.0262058045262
2930.0569,1933.0930286312923
2931.1597,1919.649334009025
2932.2619,1923.894736435669
2933.3634,1920.2788312126756
2934.4643,1922.851194402548
2935.5645,1903.0613828650028
2936.6641,1883.2089342312472
2937.763,1851.1933671018728
2938.8613,1793.4141812453856
2939.959,1757.7708579183545
2941.056,1699.5128604432084
2942.1523,1624.589634564667
2943.248,1554.5506090323227
2944.3431,1462.745196349872
2945.4375,1366.8727934755052
2946.5313,1289.0327827399603
2947.6244,1179.07453280525
2948.7169,1100.097399443058
2949.8087,1004.4507266343248
2950.8999,916.5338473590168
2951.9904,839.196084552595
2953.0803,780.8367519851818
2954.1696,726.9551550349397
2955.2582,672.500591271664
2956.3462,629.4223509955991
2957.4335,592.3197177819834
2958.5202,561.2419689118333
2959.6062,553.9883757429684
2960.6916,523.5082040207897
2961.7764,520.2507139508148
2962.8605,507.6651605034797
2963.9439,499.900793446712
2965.0267,496.1068574717897
2966.1089,488.98259227098174
2967.1905,478.9772325754898
2968.2714,478.5900082266894
2969.3516,483.42014427618506
2970.4312,482.31686098968225
2971.5102,483.9793737986852
2972.5885,497.6068933115296
2973.6662,495.0986252967591
2974.7432,495.55377054684755
2975.8196,494.07152490328394
2976.8954,491.0510792520199
2977.9705,473.3416195382929
2979.045,475.24232679683087
2980.1188,464.10237732894507
2981.192,451.52094268352494
2982.2645,429.5971897684353
2983.3364,413.7302809763321
2984.4077,393.4693744039005
2985.4783,373.66362401052174
2986.5483,342.212179820885
2987.6177,307.6141881230435
2988.6864,286.3187917829291
2989.7545,262.8251305903316
2990.8219,229.28234147185367
2991.8887,199.83955872584647
2992.9548,178.54591435783868
2994.0204,169.65053837496293
2995.0852,131.40255899889394
2996.1495,111.15110275480038
2997.2131,96.39529485382695
2998.276,77.58425939560698
2999.3383,62.317119515822014
3000.4,44.39299757431104
3001.4611,31.611015307742264
3002.5215,28.620294008854444
3003.5812,12.469954654276876
3004.6404,2.659117934436267
3005.6989,4.236904415060394
3006.7567,6.6024346352864995
3007.8139,5.304829091882766
3008.8705,-9.156791784405868
3009.9264,-9.233307615881358
3010.9818,-16.925506548496287
3012.0364,-10.134084487462019
3013.0905,-11.459568252179565
3014.1439,-15.652383422546222
3015.1966,-12.162841097373075
3016.2487,-0.09109600816077545
3017.3002,6.8628186203717405
3018.3511,2.2488704735551437
3019.4013,0.6670271680915221
3020.4509,4.617256298195002
3021.4998,15.4495254514095
3022.5481,14.06380216910668
3023.5958,32.61005383816405
3024.6428,23.238247704821788
3025.6892,22.598350689219956
3026.735,26.24032947911587
3027.7802,43.364150536284114
3028.8247,44.569780060096605
3029.8685,37.407183816284146
3030.9118,50.97632712488121
3031.9544,53.82717493185078
3032.9963,67.70969167339297
3034.0376,69.67384124743603
3035.0783,79.56958687481244
3036.1184,91.94689107961528
3037.1578,91.65571559024431
3038.1966,96.24602121562998
3039.2348,101.26776784814695
3040.2723,112.37091441770963
3041.3092,107.4054188415555
3042.3455,107.5212379132131
3043.3811,115.11832735215717
3044.4161,104.84664180265042
3045.4505,112.0561347577717
3046.4842,109.09675866213445
3047.5173,110.96846483979095
3048.5498,108.9712035238258
3049.5816,106.0049238376397
3050.6128,103.01957381492207
3051.6434,95.1151004293132
3052.6734,100.79144962425801
3053.7027,94.848566392051
3054.7314,99.43639471707263
3055.7594,99.75487763521755
3056.7868,96.5039571880169
3057.8136,95.98357441945325
3058.8398,87.64366940846946
3059.8653,89.23418127417347
3060.8902,86.05504825923651
3061.9145,87.85620771398897
3062.9381,92.13759612821036
3063.9612,89.34914911311932
3064.9835,78.84080135855811
3066.0053,81.31248666087902
3067.0264,80.71413802802533
3068.0469,73.34568765481617
3069.0668,82.20706692892918
3070.086,71.94820650458553
3071.1046,66.66903621393624
3072.1226,66.86948516965072
3073.1399,46.54948181770828
3074.1567,44.708953935394334
3075.1727,44.19782883449966
3076.1882,41.216033379725786
3077.203,37.46349399379653
3078.2173,37.99013668727548
3079.2308,31.34588709609261
3080.2438,24.630670476276805
3081.2561,20.944411770398347
3082.2678,16.487035674721255
3083.2789,21.758466676066178
3084.2893,14.108629096383538
3085.2991,10.337447040039592
3086.3083,13.394844470314297
3087.3169,6.480745247113759
3088.3248,2.845073096395822
3089.3321,10.937751679311305
3090.3388,-3.641295371439355
3091.3449,5.1578554674671295
3092.3503,4.185164095894152
3093.3551,4.840590362126818
3094.3593,4.224094072598973
3095.3629,1.035634985338902
3096.3658,1.3251728161341134
3097.3681,1.0426672704157909
3098.3698,-4.1119219596356515
3099.3708,4.561364807733526
3100.3713,0.8625283323769963
3101.3711,-7.308430671464464
3102.3702,-5.551511498175387
3103.3688,-2.8166404309178574
3104.3667,2.946311706745689
3105.364,-0.5624977705093102
3106.3607,0.9570884225292389
3107.3568,-1.8447668095740823
3108.3522,-0.017900571825350653
3109.347,8.837868459989636
3110.3412,4.572721788911167
3111.3348,1.9868408296011921
3112.3277,4.230406950994734
3113.32,13.003601502158801
3114.3117,9.556605789856803
3115.3028,16.28960099081604
3116.2932,7.602768186198091
3117.2831,15.946288294268584
3118.2723,14.120342157265668
3119.2608,14.125110457964865
3120.2488,14.960773737938553
3121.2361,11.727512397508121
3122.2229,19.675506687387326
3123.209,10.35493674101508
3124.1944,20.615982495075457
3125.1793,21.008823782703303
3126.1635,16.833640230873982
3127.1471,24.890611256474813
3128.1301,22.429916108057228
3129.1125,17.3517337852669
3130.0942,27.706243063450643
3131.0753,27.843622544438006
3132.0558,30.814050552996434
3133.0357,31.567705135457402
3134.015,26.75476403001244
3134.9936,28.67540465917608
3135.9716,25.429804177915457
3136.949,35.66813945444392
3137.9258,40.390587102677046
3138.902,32.24732337984938
3139.8775,42.638524139289586
3140.8524,36.91436491185323
3141.8267,50.975020802011045
3142.8004,46.52066654509014
3143.7735,46.95147636666775
3144.7459,49.71762402711448
3145.7178,51.06928281728648
3146.689,46.80662553086398
3147.6596,51.279824450834724
3148.6295,55.239051392120246
3149.5989,52.73447765684432
3150.5676,51.71627399474028
3151.5357,48.08461062819674
3152.5032,54.789657262439846
3153.4701,51.13158312184987
3154.4364,54.06055688291042
3155.402,48.77674671078961
3156.367,50.63032023004985
3157.3315,58.42144457748634
3158.2952,65.75028638359089
3159.2584,59.61701169464129
3160.221,62.571785899412305
3161.1829,56.71477379050896
3162.1442,63.146139534818246
3163.105,63.31604673207943
3164.065,60.624658350570655
3165.0245,69.47213672540954
3165.9834,69.50864358546761
3166.9416,69.93433996489512
3167.8993,67.69938620275587
3168.8563,70.05394193877055
3169.8127,75.59816613566602
3170.7684,74.33221705562994
3171.7236,69.55625220486837
3172.6782,70.62042834626541
3173.6321,78.42490154714267
3174.5854,73.66982716861764
3175.5381,75.65535978755892
3176.4902,75.88165324413688
3177.4417,78.94886062196841
3178.3926,75.50713424585376
3179.3428,86.75662565110488
3180.2924,86.99748561796227
3181.2415,86.97986405910041
3182.1899,85.90391001721892
3183.1377,83.21977166521893
3184.0848,90.22759631696269
3185.0314,85.27753045411461
3185.9773,90.46971965606349
3186.9227,93.35430864942276
3187.8674,97.58144125610886
3188.8115,98.50126036449541
3189.755,99.11390788714164
3190.6979,98.66952475159434
3191.6402,93.91825089426152
3192.5818,101.41022526485577
3193.5229,105.5455858739075
3194.4633,101.42446971784472
3195.4031,107.09701273763966
3196.3423,105.71334986002009
3197.2809,110.12361494074355
3198.2189,112.17794077843416
3199.1563,113.77645907048006
3200.0931,108.21930039248997
3201.0292,114.60659418230827
3201.9648,116.58846879558627
3202.8997,115.61505144190954
3203.834,119.58646816497892
3204.7677,121.05284385234495
3205.7008,122.36430219569345
3206.6333,123.6209656761819
3207.5652,120.12295555132488
3208.4964,122.62039184242741
3209.4271,123.51339336956488
3210.3571,126.95207772660899
3211.2865,125.88656127229731
3212.2154,128.76695909584694
3213.1436,135.09338502760954
3214.0712,133.21595161026696
3214.9982,132.23477003556758
3215.9246,135.44995016310006
3216.8503,140.91160053010555
3217.7755,136.81982831932567
3218.7001,143.27473930438603
3219.624,143.32643789071406
3220.5473,145.57502705098975
3221.4701,141.8206083246289
3222.3922,147.263281795297
3223.3137,146.70314612845348
3224.2346,151.59029851692497
3225.1549,145.62483468650674
3226.0746,158.15684884709106
3226.9937,149.53643375232184
3227.9121,152.81368057427454
3228.83,159.08867898966034
3229.7473,160.06151714705368
3230.6639,159.63228160414215
3231.5799,159.3010573179983
3232.4954,159.96792764937177
3233.4102,159.78297436600175
3234.3244,164.4962776359481
3235.238,165.2579160294411
3236.151,163.8679664717482
3237.0634,166.1765042355577
3237.9752,170.43360295487832
3238.8864,171.1393346019538
3239.797,176.89376944469194
3240.7069,171.396976039607
3241.6163,173.9990211742758
3242.5251,172.84996992230543
3243.4332,179.4498856173126
3244.3408,179.14882986441455
3245.2477,188.19686247422953
3246.154,184.3940414658876
3247.0598,181.29042297655013
3247.9649,185.48606129943818
3248.8694,181.03100891486852
3249.7733,182.72531644829746
3250.6766,185.91903271487107
3251.5793,188.4122047024823
3252.4814,189.95487753983394
3253.3829,192.39709447150653
3254.2838,190.5388968425319
3255.1841,195.58032407397098
3256.0838,193.7214136814957
3256.9829,195.76220122497475
3257.8814,194.9027203270627
3258.7792,200.84300265279214
3259.6765,193.78307791816843
3260.5731,200.87297383076688
3261.4692,195.31271616033212
3262.3647,200.30232866787887
3263.2595,201.79183316129482
3264.1538,198.83124944544434
3265.0474,203.27059530727345
3265.9404,197.60988654541558
3266.8329,200.14913692579836
3267.7247,199.0883582382504
3268.616,198.67756027110903
3269.5066,200.41675082182786
3270.3966,194.15593570108499
3271.286,186.49511871539093
