RamanShift,CorrectedData
30.1047,6817.570902644978
32.3739,6367.3267160336
34.6426,5922.632461246511
36.9109,5479.388006434739
39.1787,5024.943160522977
41.4461,4584.797677642045
43.7131,4140.951261673324
45.9796,3697.4535706502193
48.2456,3254.904221196619
50.5112,2819.7527929618727
52.7764,2384.5988330462874
55.0411,1947.4418603526403
57.3054,1510.0313699377198
59.5692,1077.9668373838947
61.8326,651.2477231732196
64.0955,213.8734770080806
66.3579,-198.50645792161288
68.6199,-608.4426405646868
70.8815,-967.6836467904521
73.1426,-1217.6719741262411
75.4032,-1160.390452939757
77.6634,-272.00974905568273
79.9231,2639.411064001924
82.1824,9941.265630086396
84.4412,28501.89756665695
86.6995,55257.05039176017
88.9574,59413.21733842364
91.2148,58921.441087104446
93.4717,58440.21372412752
95.7282,57962.476746603366
97.9842,57493.77106724037
100.2398,57033.53701912212
102.4949,56575.41436039455
104.7495,56109.042278868175
107.0036,55648.0093965994
109.2573,55189.25377455422
111.5105,54727.86291721851
113.7632,54271.32377718565
116.0154,53804.072759770366
118.2672,53349.94572757419
120.5185,52901.12800515789
122.7693,52442.104383582795
125.0197,51984.65912489897
127.2696,51528.97596673542
129.519,51079.888126874546
131.7679,50614.52830780905
134.0163,50165.4787012327
136.2642,49711.77099269403
138.5117,49263.18636608677
140.7587,48810.65550818696
143.0052,48371.90861313879
145.2512,47928.37538697987
147.4967,47482.88505202874
149.7417,47040.36635132021
151.9863,46594.04755306021
154.2304,46149.406455051045
156.4739,45709.07038915453
158.717,45274.11622573842
160.9596,44831.67037807978
163.2017,44399.65880671452
165.4433,43967.65702386183
167.6844,43536.79009774433
169.925,43098.58265690808
172.1651,42676.20889453124
174.4047,42246.79257280617
176.6439,41822.40702716308
178.8825,41392.52517056433
181.1206,40962.11949774818
183.3582,40542.112089527625
185.5954,40121.0246170945
187.832,39694.87834621951
190.0681,39285.89414146313
192.3037,38862.692470437105
194.5388,38448.993407894224
196.7734,38040.01663996037
199.0075,37623.9814682715
201.2411,37211.85681406343
203.4742,36812.461222332204
205.7068,36410.562865955246
207.9389,36008.27954968544
210.1704,35606.07871417006
212.4015,35207.577439973546
214.632,34814.74245159962
216.862,34430.74012147622
219.0915,34043.63647388389
221.3205,33652.147188795745
223.549,33272.93760574859
225.777,32882.87272775774
228.0044,32493.517225109143
230.2314,32115.235439260032
232.4578,31736.741386732494
234.6837,31350.448762896267
236.909,30972.97094575371
239.1339,30572.27099980272
241.3582,30209.9116798115
243.582,29815.255434825558
245.8053,29462.714411791312
248.0281,29101.90045950259
250.2503,28730.775132126102
252.472,28366.949692809547
254.6932,28003.635117392907
256.9139,27651.942098046704
259.134,27282.781046905104
261.3536,26933.31209958285
263.5727,26583.44511886691
265.7912,26234.439698211143
268.0092,25891.65516523498
270.2267,25541.900585213472
272.4436,25203.834764505133
274.6601,24855.71625404947
276.8759,24524.953352747645
279.0913,24179.85411094372
281.3061,23848.376333732194
283.5204,23512.977584409062
285.7341,23181.565187786575
287.9473,22842.446233547234
290.16,22521.72757955789
292.3721,22206.765855260957
294.5837,21884.717464881607
296.7947,21567.888590577357
299.0052,21254.03519565863
301.2152,20937.763027756977
303.4246,20637.627621963613
305.6334,20325.43430399213
307.8418,20018.338193179923
310.0495,19708.44420561009
312.2568,19406.95705718237
314.4635,19104.381266712073
316.6696,18803.42115894497
318.8752,18502.280867583024
321.0802,18219.264338294022
323.2847,17924.925331722938
325.4887,17638.117426322176
327.692,17352.394021294887
329.8949,17065.608339463062
332.0972,16789.313430124792
334.2989,16502.862171922083
336.5001,16226.807275603795
338.7007,15950.901286890221
340.9008,15679.99658923356
343.1003,15412.495406577065
345.2992,15145.349806064034
347.4976,14878.561700712839
349.6955,14610.582852088417
351.8927,14351.164872970061
354.0895,14085.309230031322
356.2856,13836.867246434085
358.4812,13587.340104487193
360.6763,13339.878848130873
362.8707,13092.684385431938
365.0646,12843.057491058462
367.258,12598.798808751686
369.4508,12351.258853822314
371.643,12111.088015593079
373.8346,11875.48655987413
376.0257,11638.754631364776
378.2162,11410.54225600946
380.4062,11179.449343365086
382.5956,10952.525688883208
384.7844,10731.520976220905
386.9726,10516.384779510016
389.1603,10293.016565567217
391.3474,10034.515696045375
393.5339,9859.731429667234
395.7199,9655.462924810425
397.9052,9446.609241255253
400.09,9239.769342227439
402.2743,9036.592096486595
404.4579,8830.526280394719
406.641,8631.970579947898
408.8235,8437.673592836996
411.0054,8241.683830433227
413.1868,8040.64971973114
415.3675,7845.019605308444
417.5477,7656.9917513363835
419.7273,7473.614343536057
421.9064,7282.135491058689
424.0848,7109.603228319378
426.2627,6926.665516911831
428.4399,6744.670247333801
430.6166,6564.665240816335
432.7928,6397.298251143846
434.9683,6227.666966454104
437.1432,6064.219010911933
439.3176,5896.651946405538
441.4914,5738.5132741809575
443.6645,5574.200436517778
445.8371,5410.310818310449
448.0091,5254.791748711468
450.1806,5105.690502770289
452.3514,4958.804302988494
454.5216,4799.180320810803
456.6913,4656.065678093895
458.8603,4514.707448702669
461.0288,4376.952659941409
463.1967,4240.798293967309
465.3639,4098.54128916809
467.5306,3957.4785415234946
469.6967,3829.8569060278824
471.8622,3703.023198100833
474.0271,3571.2741948633775
476.1914,3437.9066364063838
478.3551,3317.4672271079835
480.5182,3200.7526369672996
482.6807,3090.459502808786
484.8426,2974.1344294494484
487.0039,2859.67399080169
489.1647,2736.374731036609
491.3248,2622.1831657285584
493.4843,2521.3457830881816
495.6432,2418.309045104361
497.8015,2300.8193885525325
499.9592,2194.673226025072
502.1163,2093.8669471061876
504.2728,2010.0969194333738
506.4287,1925.509489705466
508.5839,1828.100984520337
510.7386,1737.2677112207602
512.8927,1636.1559588685413
515.0461,1551.011999152768
517.199,1467.5320874010868
519.3512,1388.5124634310632
521.5029,1307.7993523849727
523.6539,1235.7889655200124
525.8043,1160.4275010154233
527.9541,1081.6611446925745
530.1033,1018.386070768589
532.2519,944.8984426440293
534.3999,880.2444135356491
536.5472,821.9201272112186
538.694,763.1717186361057
540.8401,696.8453145565363
542.9856,633.7870340870286
545.1305,568.1429893737077
547.2748,516.4592862248028
549.4185,464.82635470004607
551.5615,418.7794654308236
553.704,371.7492454332096
555.8458,336.36213811639755
557.987,292.74087311457697
560.1276,252.30481980417244
562.2675,212.02042308028467
564.4069,178.85160731282667
566.5456,147.4101787876789
568.6837,113.4061570631311
570.8212,87.99808906978433
572.958,56.243388810748
575.0942,35.54859118818422
577.2299,12.969669232763408
579.3648,-0.8377591552489321
581.4992,-13.268205642569228
583.6329,-34.616173526781495
585.766,-53.62603355612373
587.8985,-78.24181066326855
590.0304,-112.35699405685591
592.1616,-122.16429130982578
594.2922,-142.1552875487323
596.4222,-155.87034747886355
598.5515,-169.1984156742401
600.6802,-173.77687956408045
602.8083,-182.04143628539168
604.9358,-189.92604694421607
607.0626,-200.46285405268281
609.1888,-212.5821027617203
611.3144,-212.7120355984007
613.4393,-213.02877139462362
615.5636,-218.85630398910143
617.6873,-211.3664990631587
619.8103,-211.67903592364746
621.9327,-207.71148232610722
624.0544,-204.12929135259037
626.1756,-195.54584104748938
628.2961,-197.87247020364885
630.4159,-191.918564111038
632.5351,-188.59153131362837
634.6537,-174.54686308899545
636.7716,-176.8881666853049
638.8889,-167.96730562760786
641.0056,-159.7861416720334
643.1216,-149.99653489502816
645.237,-132.95034377512638
647.3518,-113.99942529090913
649.4659,-94.99563509139989
651.5793,-79.49082768562948
653.6922,-70.68685663261567
655.8043,-52.03557469648513
657.9159,-39.18883393444412
660.0268,-16.848485883274407
662.137,-4.416381687864487
664.2466,11.405627675419964
666.3556,35.365691274389974
668.4639,58.3619580628656
670.5716,84.49257664101606
672.6786,105.95569502546277
674.785,126.24946038787311
676.8907,155.67201884043607
678.9958,187.17151523289067
681.1002,206.89609285824554
683.204,225.29389313782303
685.3072,255.31305542402697
687.4097,290.8017168163424
689.5115,319.9580118611775
691.6127,355.4300721969339
693.7132,391.3160262624733
695.8131,399.2139989424104
697.9123,449.9721112082116
700.0109,481.23848003926105
702.1089,519.9112179151707
704.2061,562.338432503253
706.3028,592.7182262716888
708.3987,633.3486960653463
710.4941,671.7779328019387
712.5887,712.7040210657142
714.6827,755.1250387231921
716.7761,799.8890565139154
718.8688,839.9941376261922
720.9608,877.3883372494893
723.0522,917.6197021733751
725.1429,963.586270413587
727.233,1014.486070809704
729.3224,1058.3171225654223
731.4112,1110.8274347396364
733.4993,1155.415005808136
735.5867,1203.427823138416
737.6735,1249.6638625438645
739.7596,1301.3210878036552
741.845,1355.8974502003475
743.9298,1409.4908880032963
746.014,1461.89932592291
748.0974,1508.2706745747419
750.1802,1563.702829955415
752.2624,1626.5436729789144
754.3439,1676.3410689221928
756.4247,1730.8928667968357
758.5048,1796.9968988510154
760.5843,1848.6509800240237
762.6631,1916.15290728517
764.7413,1977.5004591173274
766.8188,2031.491394841847
768.8956,2099.0234540050806
770.9718,2159.8443558384533
773.0473,2222.601798583237
775.1221,2292.6934588823206
777.1962,2350.566991152562
779.2697,2417.4700268839442
781.3426,2474.0001740607986
783.4147,2552.8050164928136
785.4862,2621.3321132497076
787.557,2688.5789978731846
789.6271,2756.0931776916477
791.6966,2829.422133147731
793.7654,2876.8633171231995
795.8335,2954.6641542056313
797.901,3028.672040213991
799.9678,3091.9343414206305
802.0339,3153.3983938112287
804.0993,3225.5115024521147
806.1641,3283.07094087563
808.2282,3342.0739503590376
810.2916,3370.0677393489095
812.3544,3539.1994828710667
814.4164,3465.366322250644
816.4778,3535.8653634208313
818.5385,3640.443677661162
820.5986,3699.498300892519
822.658,3789.3762326313736
824.7166,3903.024435399275
826.7747,3765.289833824034
828.832,3914.819313503249
830.8886,4146.359722381603
832.9446,4236.6078692556475
834.9999,3984.1105214583004
837.0545,4260.914403956427
839.1085,4483.616201875848
841.1618,4498.212557733277
843.2143,4319.350069209308
845.2662,4392.125289002397
847.3175,4573.734726617615
849.368,4230.324847638782
851.4179,4671.692071912446
853.467,4486.282776981883
855.5155,4716.0432936734505
857.5633,4422.519907950744
859.6105,4312.908858616902
861.6569,4654.406340249901
863.7027,4143.908504298648
865.7478,4460.461455668032
867.7922,4432.461257823859
869.8359,4884.253929627324
871.8789,4282.485445615013
873.9212,4810.751731480974
875.9629,5105.198670094447
878.0039,5056.422096217211
880.0441,4914.067793559094
882.0837,4979.981495265674
884.1226,4952.308885341925
886.1609,4893.74559799298
888.1984,4637.437217900879
890.2352,5237.87928081023
892.2714,4608.317276091337
894.3069,5000.84664073569
896.3416,4714.062765651688
898.3757,4707.260991739284
900.4091,3919.836612757834
902.4418,5207.084875394081
904.4739,4666.150987136469
906.5052,4829.930103402585
908.5358,4521.467332948603
910.5658,4306.107736231439
912.595,4371.546328493314
914.6236,3641.8780819154053
916.6515,4989.6479249634285
918.6786,3764.5007496843464
920.7051,4191.881398228637
922.7309,4107.784675101866
924.756,4488.805342890795
926.7804,4164.7381231044055
928.8041,3574.97769236366
930.8272,4195.9186856421
932.8495,4245.555702163576
934.8711,3669.8332991927746
936.892,3421.595991538845
938.9123,3639.28825731267
940.9318,3291.1045404092
942.9506,3245.839248330478
944.9688,3419.4867556675745
946.9862,2708.791404553165
949.003,3079.397502925094
951.019,2500.399331633329
953.0344,2822.591140733901
955.0491,2800.9171552788757
957.063,3144.871572094402
959.0763,3302.8485599975247
961.0888,3018.8422563565546
963.1007,3448.696765511355
965.1119,3482.2561616134335
967.1223,3293.2644843273592
969.1321,3743.51573849516
971.1412,3298.503896026268
973.1495,3205.7728913949977
975.1572,3436.2166260906306
977.1641,3415.928969544744
979.1704,3306.3037568267755
981.1759,3443.13478884691
983.1808,3330.5658334523323
985.1849,3435.99062405889
987.1884,3661.702860776808
989.1911,4180.696209356414
991.1932,3633.914298931013
993.1945,3835.70071682697
995.1951,3993.9490140315393
997.1951,3698.152703174943
999.1943,3556.7552569479813
1001.1928,3543.0001110599915
1003.1906,3661.580665652764
1005.1877,3294.890285438072
1007.1841,3154.8722985118875
1009.1798,3049.920000021324
1011.1748,2947.026653564797
1013.1691,2793.33549224156
1015.1627,2139.7397196806414
1017.1556,1978.2325115777494
1019.1477,2126.3070222312235
1021.1392,1768.5063861571034
1023.1299,1502.0737166083854
1025.12,1702.0021091530289
1027.1093,1482.5846443383125
1029.0979,1599.764385691451
1031.0859,1597.9843819138405
1033.0731,1331.737665709239
1035.0596,1427.417253801621
1037.0454,1152.2661495975626
1039.0304,943.3273422295388
1041.0148,651.493809307387
1042.9985,661.058519007689
1044.9814,838.3644329920935
1046.9636,511.25450631172134
1048.9452,492.821685634015
1050.926,513.0089125139348
1052.9061,485.15912357816705
1054.8855,490.6652503233854
1056.8642,416.12021939462284
1058.8421,502.5669525303165
1060.8194,531.9983673077077
1062.7959,470.85737627841445
1064.7717,537.2868866741264
1066.7469,514.9798010179147
1068.7213,500.72901646007085
1070.695,453.5274250010625
1072.6679,256.41791363411903
1074.6402,311.89336481718055
1076.6117,299.2466584440699
1078.5826,423.57067128967174
1080.5527,425.5082771364323
1082.5221,553.6523455311399
1084.4908,919.59574176553
1086.4587,1060.1813255948146
1088.426,1264.1519475782625
1090.3925,1189.9504476733782
1092.3584,1140.21965319616
1094.3235,831.8523795631336
1096.2879,709.5914307886269
1098.2515,681.6796025684525
1100.2145,769.0596835025281
1102.1767,776.5244553739903
1104.1382,963.5666922753735
1106.099,1166.2791605339953
1108.0591,1324.9546168415109
1110.0185,1362.2358062268177
1111.9771,1523.8154604692463
1113.9351,1159.436297725806
1115.8923,795.8910209153692
1117.8488,419.4223213624573
1119.8045,78.77288243271323
1121.7596,26.33538329757721
1123.7139,-56.3974976592217
1125.6675,-64.53308231729898
1127.6204,109.72130800774175
1129.5726,92.05899668576603
1131.524,244.0233059894672
1133.4748,334.20755727095093
1135.4248,254.5550694421254
1137.3741,377.50915807284036
1139.3226,337.8631361874286
1141.2705,382.3103130351665
1143.2176,194.5439944867103
1145.164,299.10748258963577
1147.1097,332.19407744608907
1149.0546,408.8470761671779
1150.9989,376.75977254208556
1152.9424,214.77545627152722
1154.8852,97.03741328864271
1156.8272,-17.261072621200583
1158.7686,12.123281357024098
1160.7092,-158.96624178899947
1162.6491,-205.43635919284134
1164.5883,-28.142199915324454
1166.5267,70.31315929193806
1168.4644,304.7769228178731
1170.4014,440.59629434828094
1172.3377,824.3684745212013
1174.2732,1012.5406595687455
1176.2081,1259.2100374793154
1178.1421,1394.3237861159505
1180.0755,1581.9790707495995
1182.0082,1530.7730427079878
1183.9401,1462.8028374990754
1185.8713,1313.115575323085
1187.8017,1018.5583617522498
1189.7315,834.7282892276635
1191.6605,496.6224400048668
1193.5888,355.98788799211616
1195.5163,287.271702131482
1197.4432,134.72094780519546
1199.3693,28.932687522763445
1201.2947,16.40398244652897
1203.2193,-72.71810655047011
1205.1432,23.26348124074866
1207.0664,35.796532983011275
1208.9889,111.87883560657792
1210.9106,187.0581756837273
1212.8316,207.78233866790833
1214.7519,359.04910814205505
1216.6715,371.6562656112437
1218.5903,334.55158899007074
1220.5084,263.48285247656895
1222.4257,329.2978269232917
1224.3424,145.89428054794553
1226.2583,222.6699782753276
1228.1735,353.8726835712514
1230.0879,382.8501576748604
1232.0016,573.650158286604
1233.9146,629.3704392784202
1235.8269,479.7087487857643
1237.7384,428.26282865042594
1239.6492,191.73041591708898
1241.5592,141.85924334781157
1243.4686,51.04704178735847
1245.3772,-5.108459338109242
1247.285,-26.70953111286508
1249.1922,-155.65839358768426
1251.0986,-86.85699998516066
1253.0042,-126.15574850053235
1254.9092,-48.104169627629744
1256.8134,74.44946643560979
1258.7169,309.4573700518886
1260.6196,424.72175083943876
1262.5216,672.744815321952
1264.4229,850.2787657759036
1266.3234,1033.1757977503148
1268.2232,1085.8880982914416
1270.1223,1078.7678441138123
1272.0207,1094.317201073085
1273.9183,1020.9883242372307
1275.8151,932.0333577310885
1277.7113,896.6044354695769
1279.6067,740.0536820473208
1281.5014,598.233213092899
1283.3953,468.6451368343842
1285.2885,401.191555517511
1287.181,374.0245667015952
1289.0727,491.646263934068
1290.9637,480.2587370221154
1292.854,653.0140708565013
1294.7435,811.2143455253827
1296.6323,1115.9116345868097
1298.5204,1372.4080034866856
1300.4077,1709.8055065118242
1302.2943,1885.8561842249728
1304.1802,2017.0120600908485
1306.0653,1889.3251387155942
1307.9497,1835.447404535269
1309.8333,1847.8808230926916
1311.7162,1854.4773415762393
1313.5984,2003.7388886954868
1315.4798,2177.667374615259
1317.3605,2357.764689463005
1319.2405,2589.4327015895324
1321.1197,2620.2732557680174
1322.9982,2597.6881708773326
1324.876,2713.779239593623
1326.753,2644.3482286162107
1328.6293,2676.446877506598
1330.5048,2852.7268993828657
1332.3796,2831.689980598607
1334.2537,2891.737778980176
1336.127,2804.071924037038
1337.9996,2771.894016361297
1339.8714,2757.1056285043487
1341.7426,2698.1583052986753
1343.6129,2673.9535640057074
1345.4826,2582.74289490531
1347.3515,2665.927761537834
1349.2196,2634.309601616231
1351.087,2609.5398261941773
1352.9537,2674.36981998229
1354.8197,2859.250941595794
1356.6849,3128.63452290625
1358.5493,3190.3718671927127
1360.4131,3214.4142464478828
1362.276,3119.1629007607517
1364.1383,2978.419038076172
1365.9998,2756.7338351473954
1367.8606,2452.308438943499
1369.7206,2201.8939688662394
1371.5799,2103.3415197942886
1373.4384,1958.202164587412
1375.2962,1895.0269550719822
1377.1533,1589.3669234923582
1379.0096,1253.6230831426365
1380.8652,1050.446431423261
1382.7201,865.1379531984421
1384.5742,603.8986228279391
1386.4275,475.17940602015733
1388.2802,355.83126244452797
1390.132,245.60514701871216
1391.9832,258.8020111020742
1393.8336,146.92280359794677
1395.6832,127.1684708216344
1397.5322,60.03995761922852
1399.3803,65.68820756513378
1401.2278,-4.285836366598232
1403.0745,-6.431231858801766
1404.9204,-45.89699377881334
1406.7656,5.717927253997914
1408.6101,1.965039131238882
1410.4538,7.145849687345617
1412.2968,27.86184712601971
1414.139,31.314519579511398
1415.9805,225.75535490147013
1417.8213,252.23584063238013
1419.6613,345.0574620551779
1421.5006,563.0217019304473
1423.3391,881.1800395682258
1425.1769,1221.3339486483383
1427.0139,1775.8848940388343
1428.8502,2436.234328394403
1430.6858,3041.083686610884
1432.5206,3436.634379221774
1434.3547,3708.0877863497444
1436.188,3728.245253751131
1438.0206,3745.658090101413
1439.8524,3612.0275667936185
1441.6835,3554.754917764203
1443.5139,3484.0413408293607
1445.3435,3435.1379982577564
1447.1724,3427.8460174776337
1449.0005,3367.316491565867
1450.8279,3255.600479320903
1452.6545,3271.5990058680036
1454.4804,3368.463063776453
1456.3056,3373.993612899543
1458.13,3281.5915794059547
1459.9536,3150.8078557244444
1461.7766,2791.2933014678783
1463.5987,2354.7487447410313
1465.4202,2002.9749857357783
1467.2409,1650.472801096501
1469.0608,1470.5429474378543
1470.88,1209.6361648697675
1472.6984,1010.7531787967746
1474.5161,842.7447025270703
1476.3331,663.1114392613126
1478.1493,590.1040837727305
1479.9648,572.9733242034526
1481.7795,490.3198427945681
1483.5935,444.2943160574614
1485.4067,428.3974156003205
1487.2192,424.3798085884009
1489.031,423.34215790300004
1490.842,387.83512218164105
1492.6522,416.1093558284301
1494.4618,375.56550936913845
1496.2705,408.0542291684578
1498.0785,372.1761578354126
1499.8858,385.63193389850494
1501.6924,397.42219216448575
1503.4981,442.09756358378945
1505.3032,468.1586751326613
1507.1075,446.50614936637794
1508.911,429.44060415863714
1510.7138,426.5126529180852
1512.5159,389.9229047589979
1514.3172,353.2219645305013
1516.1178,340.3104331825125
1517.9176,359.6889081327354
1519.7166,331.25798339576795
1521.515,287.7182493893597
1523.3126,315.67029321865994
1525.1094,321.9646991116606
1526.9055,269.152048139651
1528.7008,283.83291815427947
1530.4954,212.5578843156727
1532.2893,208.27751894565517
1534.0824,143.94239224045305
1535.8747,228.303072313538
1537.6663,222.81012583896882
1539.4572,185.06411720780306
1541.2473,225.7656085829949
1543.0367,253.01516027688194
1544.8253,193.56333034414274
1546.6132,244.56067430932308
1548.4003,205.85774576136464
1550.1867,271.0050958435895
1551.9723,280.40327364077166
1553.7572,359.1528255276462
1555.5414,358.3542950749252
1557.3247,364.4582222618119
1559.1074,419.86514348397395
1560.8893,454.32559149249937
1562.6705,549.0400948398164
1564.4509,581.5591775351131
1566.2305,701.1333580971768
1568.0094,856.7131492292137
1569.7876,997.8990566230823
1571.565,1059.1415774035377
1573.3417,1147.2911987163388
1575.1176,1166.598397115842
1576.8928,1140.3636376834875
1578.6672,1087.0873738347582
1580.4409,996.5200475815072
1582.2138,847.0620900647264
1583.986,719.6139224602084
1585.7575,672.3759574731521
1587.5282,585.2986006126303
1589.2981,543.7822506639422
1591.0673,471.17730055942957
1592.8358,499.43413779360344
1594.6035,522.9531451492257
1596.3704,516.5347004147043
1598.1366,526.9791761489396
1599.9021,563.8369397454917
1601.6668,589.1083533281526
1603.4308,626.3937733823295
1605.194,709.2935505023743
1606.9564,807.5580290186845
1608.7182,952.8875461687385
1610.4791,1091.632431114438
1612.2394,1219.2430034888057
1613.9988,1390.4695720085583
1615.7576,1656.5124331979932
1617.5156,1926.7218696767268
1619.2728,2181.798147499252
1621.0293,2358.541513452874
1622.785,2456.0521925069042
1624.54,2417.4803860452557
1626.2942,2223.5262708913215
1628.0477,1965.239999693702
1629.8005,1732.1717028657367
1631.5525,1545.1214911683674
1633.3037,1323.1394580408196
1635.0542,1204.0256814710956
1636.804,1039.1302262158315
1638.553,908.5531449914233
1640.3013,903.344480122978
1642.0488,876.8042648500887
1643.7955,883.8825233789248
1645.5416,934.3292711475988
1647.2868,985.0945147554194
1649.0313,1049.1782514584047
1650.7751,1259.930468661627
1652.5181,1420.3511432783926
1654.2604,1634.7902396226964
1656.0019,1982.2977078050462
1657.7427,2362.7234815880365
1659.4828,2767.517474911314
1661.222,2996.4295780872926
1662.9606,3069.0596537532256
1664.6984,2904.707534582092
1666.4354,2633.5730225562584
1668.1717,2179.5558906110364
1669.9072,1747.0558853459988
1671.642,1381.8727315651777
1673.3761,1148.2061366020607
1675.1094,933.4557939714105
1676.8419,786.2713857059425
1678.5737,654.2525845038235
1680.3048,533.099055200526
1682.0351,445.01045608899767
1683.7646,379.486440131217
1685.4934,374.22665583905473
1687.2215,328.88074792952466
1688.9488,278.5483573773854
1690.6754,220.17912186858848
1692.4012,268.6726763036113
1694.1263,267.22865338113115
1695.8506,253.39668311310197
1697.5742,184.17639283919925
1699.297,165.31740736514803
1701.0191,138.2693496549
1702.7404,143.13184101925071
1704.461,77.60450138631313
1706.1808,74.98694925289055
1707.8999,84.57880233973992
1709.6182,91.02967761774562
1711.3358,65.63919121201616
1713.0527,60.20695833736136
1714.7688,53.18259355221562
1716.4841,29.01571081295333
1718.1987,75.00592354412402
1719.9126,41.9028448801364
1721.6257,46.8060872053411
1723.338,80.7152624850678
1725.0496,39.62998221658381
1726.7605,9.849857090017395
1728.4706,-3.225502600789696
1730.18,-37.246486660496885
1731.8886,-23.763452671008054
1733.5964,-24.22638612182527
1735.3036,18.36496489442834
1737.0099,40.01109430672841
1738.7156,22.112495860399576
1740.4204,-38.380337099344615
1742.1246,-4.2169114484077
1743.8279,10.353649356866299
1745.5306,20.68226398707702
1747.2325,13.969851009291233
1748.9336,32.51732878376606
1750.634,20.12561553105479
1752.3336,16.545629146545252
1754.0325,55.378287324363555
1755.7307,57.62450759319108
1757.4281,102.13520692792736
1759.1247,83.81130172723533
1760.8206,102.25370736844707
1762.5158,146.86333839077633
1764.2102,131.7411083109182
1765.9039,115.83792917693063
1767.5968,99.60471171947938
1769.289,91.59236551084541
1770.9804,119.20179912726417
1772.6711,171.33392022905355
1774.361,104.13963528451313
1776.0502,151.66984904861056
1777.7386,151.5754652349333
1779.4263,148.75738604036815
1781.1132,166.26651214605772
1782.7994,151.4037427455587
1784.4849,178.7199753697787
1786.1696,153.11610603560075
1787.8535,172.2930289727101
1789.5367,184.30163687963977
1791.2192,215.24282073199174
1792.9009,191.26746966235987
1794.5818,198.5264706509115
1796.2621,187.77070876513972
1797.9415,199.15106708727762
1799.6202,207.31842682185743
1801.2982,210.37366718190606
1802.9755,225.367665307278
1804.6519,237.15129623409484
1806.3277,241.4254327448125
1808.0027,214.29094525037908
1809.6769,248.24870174748867
1811.3504,237.5995680899323
1813.0231,208.54440764901847
1814.6951,275.33408142007283
1816.3664,305.61944831297114
1818.0369,280.0513644842558
1819.7067,317.330683034279
1821.3757,279.4582542628814
1823.044,298.384925296612
1824.7115,316.4115404674303
1826.3783,272.63894112346316
1828.0443,277.61796544871504
1829.7096,269.3494489008135
1831.3741,328.934224161203
1833.0379,347.4731212178467
1834.701,341.9669667693579
1836.3633,325.76658403962574
1838.0248,349.3727928328717
1839.6856,349.68640969564876
1841.3457,405.3582476807933
1843.005,382.68911634427786
1844.6636,411.72982118850086
1846.3214,398.4811638889678
1847.9785,419.74394200389725
1849.6349,428.26894910669034
1851.2904,426.9569745733206
1852.9453,422.70880349708204
1854.5994,439.3252167016981
1856.2528,479.1569907838184
1857.9054,452.30489794684036
1859.5572,494.1197056026067
1861.2083,486.70217663990843
1862.8587,512.4030690063482
1864.5084,532.2731357825214
1866.1572,523.8131249249855
1867.8054,514.1237790675768
1869.4528,536.8058356059955
1871.0994,486.1100267947113
1872.7453,486.937079520143
1874.3905,520.287715807608
1876.0349,507.51265281306405
1877.6786,518.7626024895853
1879.3215,547.3382717151344
1880.9637,554.4903621800495
1882.6051,566.4195701012904
1884.2458,570.2765861509124
1885.8858,553.4120953367892
1887.525,585.126776964029
1889.1634,552.4713048036228
1890.8011,540.9463467753012
1892.4381,575.6525652740875
1894.0743,557.6906172855452
1895.7098,555.1111540387101
1897.3446,571.3148211857333
1898.9786,568.4522588276432
1900.6118,567.9741013523362
1902.2443,556.0809774631834
1903.8761,584.123510183832
1905.5071,546.5023169771248
1907.1374,526.0680094646632
1908.7669,549.9211938030348
1910.3957,561.3624708881453
1912.0237,525.2924361166843
1913.651,558.0116792717345
1915.2776,506.97078488344414
1916.9034,526.5703319018594
1918.5285,506.96089420732824
1920.1528,487.7430404144943
1921.7764,514.7173340684003
1923.3992,481.9343338366598
1925.0213,430.74459323972224
1926.6427,441.4986609786938
1928.2633,458.7470814472417
1929.8832,435.24039462405017
1931.5023,429.42913590034004
1933.1207,423.5638363149392
1934.7383,465.59502261238595
1936.3552,443.7232173015891
1937.9714,412.1489382355139
1939.5868,429.6226988298931
1941.2015,371.19500837897067
1942.8154,377.3163718807755
1944.4286,369.2872906213852
1946.041,356.10826211371386
1947.6528,357.2297801778186
1949.2637,344.6523350726675
1950.8739,332.9264134849436
1952.4834,355.10249865480546
1954.0921,377.58107049315186
1955.7001,330.86260535985275
1957.3074,347.14757583896244
1958.9139,334.78645120592046
1960.5197,331.72969726468364
1962.1247,305.3277764713457
1963.729,288.3311479647091
1965.3325,284.84026783030276
1966.9353,275.0555892703487
1968.5374,261.52756263867013
1970.1387,262.65663553853665
1971.7393,269.6432529579506
1973.3392,242.73785725835296
1974.9383,249.0408881047606
1976.5366,254.4027827348109
1978.1342,261.17397589574284
1979.7311,277.2548997907761
1981.3273,256.74598401139156
1982.9227,259.6976553765289
1984.5173,246.1103381376688
1986.1112,225.98445394932787
1987.7044,234.32042200491924
1989.2968,236.56865923801706
1990.8885,247.32958023899664
1992.4795,239.9035972325546
1994.0697,240.44111997008986
1995.6592,235.5425558039642
1997.2479,226.90830968213777
1998.8359,244.08878419714347
2000.4232,224.084379672453
2002.0097,207.19549399064636
2003.5955,217.3725227934592
2005.1805,220.01585965068807
2006.7648,229.97589595839963
2008.3484,229.10302091251833
2009.9312,242.69762140920648
2011.5133,218.6100820536085
2013.0946,229.8407850238873
2014.6752,231.3901103121152
2016.2551,221.75843561195688
2017.8342,232.5961363031729
2019.4126,203.45358554795166
2020.9902,181.98115418251473
2022.5672,198.27921100855474
2024.1433,202.3981230079553
2025.7188,217.43825517980622
2027.2935,185.79997049922986
2028.8674,190.8336297669639
2030.4406,196.1395919257484
2032.0131,193.06821400999343
2033.5849,157.31985109271227
2035.1559,183.3448563162474
2036.7261,201.04358124975352
2038.2957,200.91637562894084
2039.8645,196.81358717909006
2041.4325,205.38556161632005
2042.9998,206.6826426886164
2044.5664,215.6051720901196
2046.1323,212.70348944814486
2047.6974,184.32793223395947
2049.2617,192.67883579179943
2050.8254,202.7565336226262
2052.3883,222.21135730061724
2053.9504,209.2936363723884
2055.5118,207.0036981624562
2057.0725,198.79186790239874
2058.6325,219.65846875376155
2060.1917,202.0538218901811
2061.7502,225.42824628871585
2063.3079,190.03205890588833
2064.8649,191.06557444394093
2066.4212,199.87910570479835
2067.9767,199.47296357972937
2069.5315,193.397456961211
2071.0856,137.2028927470019
2072.6389,149.28957590089158
2074.1915,132.7078100146473
2075.7433,128.95789718714786
2077.2945,123.69013819019528
2078.8448,127.10483250601737
2080.3945,123.80227837994607
2081.9434,154.68277278626556
2083.4916,149.4966114612398
2085.039,121.09408859431005
2086.5857,148.32549687995288
2088.1317,140.14112780170854
2089.677,144.041271359868
2091.2215,157.62621615331227
2092.7652,136.74624934052008
2094.3083,127.40165650370636
2095.8506,149.14272185763093
2097.3921,181.51972834303797
2098.933,155.38295740924968
2100.4731,169.2826886904004
2102.0124,174.76920026679363
2103.5511,164.5927685259112
2105.089,172.35366810754567
2106.6261,188.902172005568
2108.1626,186.48855149031988
2109.6983,162.7130759431202
2111.2332,187.52601288041024
2112.7675,194.0276281915003
2114.301,177.71818589044597
2115.8337,199.64794805102974
2117.3657,194.01717496985748
2118.897,205.87612494705445
2120.4276,196.82505434257837
2121.9575,184.11421745762345
2123.4866,185.9938666251419
2125.0149,199.9142523369419
2126.5426,171.7756232249012
2128.0695,180.77822592175835
2129.5956,177.72230534249502
2131.1211,188.75810459431523
2132.6458,189.6858650071963
2134.1698,209.15582602353606
2135.693,202.21822518888257
2137.2155,193.97329795722544
2138.7373,201.12127776037596
2140.2584,213.3623960904115
2141.7787,203.9968824282023
2143.2983,178.97496412099463
2144.8171,175.19686647607068
2146.3353,192.7628130109706
2147.8527,170.62302549126525
2149.3693,171.67772375490222
2150.8853,179.97712593360302
2152.4005,137.62144844231716
2153.9149,183.01090589622163
2155.4287,173.8957115342855
2156.9417,211.32607676536918
2158.454,185.00221125937878
2159.9655,160.0243225729655
2161.4764,172.24261641275825
2162.9865,193.20729688515075
2164.4958,157.36856637410892
2166.0045,182.42662533153543
2167.5124,210.331672635647
2169.0195,190.98390534039936
2170.526,200.58351839644
2172.0317,194.68070484457803
2173.5367,192.87565571979212
2175.0409,195.1685601102572
2176.5445,186.80960517539825
2178.0473,192.69897612295426
2179.5494,179.08685629256797
2181.0507,162.62342709690074
2182.5513,189.20886815774156
2184.0512,197.1933574706527
2185.5504,162.52707113911129
2187.0488,150.3601832946606
2188.5465,177.5428664435767
2190.0435,145.77529158853304
2191.5397,165.1576279567771
2193.0353,169.64004331780507
2194.5301,144.12270378954508
2196.0241,141.0057737935258
2197.5175,146.48941631005255
2199.0101,135.5237929093737
2200.502,141.35906369684653
2201.9931,131.44538742259647
2203.4835,141.4329214231584
2204.9733,136.42182172062076
2206.4622,147.212242922742
2207.9505,124.80433827306751
2209.438,100.69825954301996
2210.9248,117.4941572559892
2212.4109,115.64218092837837
2213.8962,121.59247890165898
2215.3809,104.39519836088311
2216.8648,111.00048527518265
2218.3479,132.95848456974454
2219.8304,93.06934005975381
2221.3121,113.28319423081302
2222.7931,96.45018863783298
2224.2733,85.720463702899
2225.7529,89.7441588835909
2227.2317,94.42141278029158
2228.7098,99.65236309594366
2230.1872,89.18714658927729
2231.6638,102.17589902250802
2233.1397,82.06875526598469
2234.6149,88.9158491682947
2236.0894,77.96731375734998
2237.5632,94.87328117190373
2239.0362,67.53388277104386
2240.5085,82.29924896512239
2241.9801,89.16950948915564
2243.4509,78.59479325517077
2244.921,78.67522828350047
2246.3904,69.51094180852851
2247.8591,74.10206027788809
2249.3271,74.89870944410814
2250.7943,85.1010143186968
2252.2608,67.25909916417822
2253.7266,74.52308739206819
2255.1917,65.69310174128987
2256.656,52.46926420554064
2258.1197,51.40169612159116
2259.5826,59.74051830151893
2261.0447,71.83585104338727
2262.5062,62.38781404785914
2263.9669,61.346526297240416
2265.4269,82.41210614995998
2266.8862,85.68467135099036
2268.3448,80.26433882117999
2269.8026,89.20122462453583
2271.2598,79.89544402242609
2272.7162,86.49711138420662
2274.1719,79.45634028028508
2275.6268,80.0732434160982
2277.0811,99.99793270252667
2278.5346,83.43051924971678
2279.9874,102.47111316783776
2281.4395,107.26982373275587
2282.8908,91.97675919562698
2284.3414,90.89202673490763
2285.7914,73.51573260929126
2287.2406,87.9479821685527
2288.689,83.23888002731383
2290.1368,93.03852992071825
2291.5838,82.29703475152382
2293.0302,111.71449649210172
2294.4758,86.84101629185716
2295.9206,75.7266941830494
2297.3648,83.42162932953033
2298.8082,104.67592013788362
2300.251,99.88966418048221
2301.693,87.06295798293922
2303.1343,94.09589707197028
2304.5748,101.28857610366595
2306.0147,95.19108879315809
2307.4538,104.10352784270071
2308.8922,101.02598500263412
2310.3299,115.50855098226748
2311.7669,86.85131548065146
2313.2031,90.40436704175681
2314.6387,91.26779334103958
2316.0735,83.04168114991899
2317.5076,89.12611632714197
2318.941,99.57118390103824
2320.3737,95.8269680086787
2321.8056,89.34355179142494
2323.2369,103.7710174323729
2324.6674,89.80944622118295
2326.0972,84.45891840980858
2327.5263,88.8195133521076
2328.9547,93.4913095573529
2330.3823,77.87438464661864
2331.8092,87.86881530606934
2333.2355,77.92467744312944
2334.661,87.29204608653527
2336.0858,106.17099548578699
2337.5098,102.51159901746087
2338.9332,104.96392899642615
2340.3558,89.42805671244241
2341.7778,97.20405240563468
2343.199,103.24198542184786
2344.6195,80.59192413489745
2346.0393,95.55393588617744
2347.4583,93.87808721116653
2348.8767,104.46444368980019
2350.2943,99.86306996323992
2351.7113,110.72402962799697
2353.1275,114.49738528195803
2354.543,91.43319841577159
2355.9578,100.6315293751104
2357.3718,98.54243759132032
2358.7852,89.16598148944149
2360.1978,85.75221850908747
2361.6098,98.6012051982193
2363.021,90.56299724726887
2364.4315,91.53764936066455
2365.8413,102.07521533720819
2367.2504,77.57574806033017
2368.6587,84.98929939271011
2370.0664,91.6159204212654
2371.4733,71.90566138301801
2372.8795,88.75857159883299
2374.285,86.77469967052139
2375.6899,62.354093312315854
2377.0939,64.69679937070168
2378.4973,59.352864068626786
2379.9,66.07233298207393
2381.3019,58.05525109349901
2382.7032,45.301662724638845
2384.1037,57.211611616678965
2385.5035,70.33514105778386
2386.9027,57.272293764009646
2388.3011,48.32311174806182
2389.6987,68.08763644991586
2391.0957,50.56590882632099
2392.492,43.75796915315095
2393.8876,36.563857200626444
2395.2824,40.28361230139308
2396.6765,41.91727342246395
2398.07,42.864879128012035
2399.4627,39.576467563044844
2400.8547,35.90207644392285
2402.246,29.291743091243916
2403.6366,31.445504466596958
2405.0265,26.263397238648395
2406.4156,4.795457761614671
2407.8041,40.941722127078265
2409.1918,17.752226378670457
2410.5789,23.427006150605393
2411.9652,13.266096899575587
2413.3508,30.06953384800636
2414.7358,25.28735208566559
2416.12,21.969586401625747
2417.5035,31.3662713320864
2418.8863,18.977441193556388
2420.2684,28.90312998888203
2421.6497,23.19337153113611
2423.0304,7.3481993443615465
2424.4104,16.417646720670746
2425.7896,17.25174687869412
2427.1682,23.600532872891108
2428.546,-0.73596241479936
2429.9232,8.542293661561416
2431.2996,23.385341100172354
2432.6753,27.593219813815722
2434.0503,37.86596948141869
2435.4246,27.153629505978643
2436.7982,20.406238911833043
2438.1711,29.523836451785428
2439.5433,12.206460674574373
2440.9148,8.854149833704923
2442.2856,25.016942060620295
2443.6557,23.694875398223303
2445.025,13.587987639249604
2446.3937,27.696316339485747
2447.7617,19.76989891884068
2449.1289,41.2087725202623
2450.4955,37.312974088999
2451.8613,22.882540158213942
2453.2265,19.817506887937725
2454.5909,33.617910209378806
2455.9546,30.68378585557184
2457.3177,29.865169223376597
2458.68,38.61209540281561
2460.0416,27.92459918526083
2461.4025,52.8027149759655
2462.7627,51.296476900936796
2464.1222,40.955918558157464
2465.4811,47.68107303264787
2466.8392,48.47197299987238
2468.1966,34.27865065848573
2469.5533,58.75113772242412
2470.9093,65.08946556283945
2472.2645,59.94366496337307
2473.6191,59.81376605677542
2474.973,49.099798376359104
2476.3262,64.80179085730197
2477.6787,35.96977194378405
2479.0305,51.0037694319667
2480.3816,42.053810758316104
2481.7319,58.41992284926391
2483.0816,58.302132210702894
2484.4306,51.9004647643319
2485.7789,44.96494584882703
2487.1264,50.09560028385931
2488.4733,34.892452439454246
2489.8195,43.00552618468191
2491.165,16.234845039689844
2492.5097,35.78043209457337
2493.8538,44.49231027708038
2495.1972,26.220502157157625
2496.5398,33.765029859828246
2497.8818,24.825915247914054
2499.2231,29.003179846582498
2500.5637,31.796844932744534
2501.9035,27.256931493280263
2503.2427,42.38346019710389
2504.5812,38.97645144056105
2505.919,33.085925196165135
2507.256,37.31190104666575
2508.5924,33.90439824395298
2509.9281,25.113435666800342
2511.2631,22.58903185493864
2512.5974,43.53120509696282
2513.9309,50.139973455581185
2515.2638,29.315354558190847
2516.596,50.15736553079114
2517.9275,32.81602320622824
2519.2583,35.741343915776724
2520.5884,35.233343662551306
2521.9178,36.49203809225446
2523.2465,52.21744249825633
2524.5745,30.25957180900741
2525.9018,30.618440430785995
2527.2284,33.49406246727585
2528.5543,20.136451715977273
2529.8796,29.645621639450383
2531.2041,48.52158549889464
2532.5279,41.36435625905233
2533.851,49.723946399452416
2535.1735,45.00036798598376
2536.4952,46.04363258729518
2537.8163,61.45375132203253
2539.1366,57.43073484840579
2540.4562,49.37459321008964
2541.7752,63.08533587645206
2543.0935,62.16297182311882
2544.411,55.30750939486097
2545.7279,72.01895631482012
2547.0441,76.19731975306695
2548.3596,82.09260615948187
2549.6744,65.25482122197536
2550.9885,68.28396980753269
2552.3019,73.63005613059477
2553.6146,79.593083722762
2554.9266,72.77305537933535
2556.2379,71.36997309968501
2557.5485,69.98383815545458
2558.8585,55.26465110458821
2560.1677,72.26241180519173
2561.4762,82.8271195627267
2562.7841,88.70877296002982
2564.0913,98.65736975166874
2565.3977,95.07290680512142
2566.7035,86.805380001294
2568.0086,95.30478427036405
2569.313,96.92111367445978
2570.6167,101.6543613226595
2571.9197,112.30451935483507
2573.222,107.17157889431428
2574.5236,108.25552994138025
2575.8246,111.90636142460016
2577.1248,114.12406118998933
2578.4244,126.10861596449877
2579.7232,126.0100113338367
2581.0214,113.72823162262785
2582.3189,128.26325989539646
2583.6157,132.8650780793846
2584.9118,131.48366681920334
2586.2072,135.46900543081483
2587.5019,136.57107191534578
2588.7959,144.08984291923343
2590.0893,143.02529372320305
2591.3819,151.07739816708408
2592.6739,159.1961286604551
2593.9652,163.23145610211895
2595.2557,156.9833497989207
2596.5456,152.30177742539217
2597.8348,160.23670508623036
2599.1234,151.53809736311814
2600.4112,162.455917235372
2601.6983,155.19012616692862
2602.9848,160.9906839971668
2604.2705,139.75754901356618
2605.5556,159.59067789370124
2606.84,167.4900259175704
2608.1237,160.95554676926872
2609.4067,141.78719245799107
2610.689,143.1849133833789
2611.9707,150.6486585272039
2613.2516,145.07837543938967
2614.5319,146.5740101633753
2615.8115,148.98550729181625
2617.0903,142.96280995163124
2618.3685,140.1558597798837
2619.6461,148.86459698400972
2620.9229,151.68896036988872
2622.199,158.07888725475277
2623.4745,155.48431343894435
2624.7493,152.45517314201902
2626.0234,147.3913990286892
2627.2968,149.5429222391167
2628.5695,151.1096724395511
2629.8415,136.3415778008134
2631.1128,147.18856498262858
2632.3835,151.75055928130723
2633.6535,145.9774845212762
2634.9228,145.26926300945706
2636.1914,147.37581559299906
2637.4593,146.0470616663588
2638.7265,135.5329191502367
2639.9931,144.48330450486333
2641.259,150.99813283514095
2642.5242,147.77731780113868
2643.7887,157.32077155294564
2645.0525,135.27840476287815
2646.3156,128.2001265300462
2647.5781,138.98584460077768
2648.8398,130.1854654394001
2650.1009,131.79889412038233
2651.3613,137.57603441634024
2652.6211,140.4667887819014
2653.8801,131.5710582959357
2655.1385,129.9887426326443
2656.3961,138.6697401505187
2657.6531,151.8139479081633
2658.9094,157.12126157748662
2660.1651,143.44157531225642
2661.42,152.32478169502997
2662.6743,151.92077187395103
2663.9279,163.0794354739171
2665.1808,152.05066060061745
2666.433,149.53433372894938
2667.6846,159.08033981330482
2668.9354,164.83856231273398
2670.1856,168.25888309548577
2671.4351,161.09118238142264
2672.6839,183.78533870781985
2673.9321,162.8912290010419
2675.1795,169.75872834960137
2676.4263,173.53771021309944
2677.6724,175.0780463535507
2678.9179,179.7296067975949
2680.1626,188.44225982109083
2681.4067,183.21587190260334
2682.6501,180.90030763627624
2683.8928,177.14542978409463
2685.1348,174.9010992990427
2686.3761,169.7671753626505
2687.6168,170.39351540743928
2688.8568,170.22997516825967
2690.0961,160.0264086760278
2691.3348,185.13266825936057
2692.5727,169.14860464661297
2693.81,164.17406671481376
2695.0466,161.6089016495066
2696.2826,148.50295499449612
2697.5178,161.30607067749816
2698.7524,156.16809114120156
2699.9863,153.48885721523857
2701.2195,153.8682081675613
2702.452,156.95598173123653
2703.6839,164.65201410064742
2704.9151,159.25613990061788
2706.1456,171.3181921094524
2707.3755,176.88800211289413
2708.6046,190.1153995835043
2709.8331,190.100212424966
2711.0609,200.1422666398082
2712.2881,207.79138632955846
2713.5145,217.94739359432083
2714.7403,228.7601084562857
2715.9654,245.32934875817114
2717.1899,235.6049300550942
2718.4136,262.8866654488795
2719.6367,264.0743656853035
2720.8591,265.01783888127625
2722.0809,282.066890512966
2723.3019,294.371323406363
2724.5223,297.2809375667905
2725.7421,294.5455300558592
2726.9611,295.11489496237255
2728.1795,303.38882342967895
2729.3972,293.5671036499798
2730.6142,270.1995207815878
2731.8306,268.7358570471458
2733.0462,240.77589196730196
2734.2612,222.9694023753466
2735.4756,195.41616269681185
2736.6892,183.5159451275365
2737.9022,167.81851990919904
2739.1145,160.82365544831805
2740.3262,146.83111847322766
2741.5372,145.4906741040254
2742.7475,126.35208599249836
2743.9571,116.81511633552714
2745.1661,95.47952606647391
2746.3744,91.74507495054945
2747.582,85.06152179817036
2748.7889,86.57862450230346
2749.9952,62.69614010530131
2751.2008,71.31382478373098
2752.4057,45.281434087199386
2753.61,49.29872285217539
2754.8136,49.965445462313255
2756.0165,47.631355808281114
2757.2188,50.29620728109262
2758.4204,35.259752795447866
2759.6213,30.52174476308528
2760.8215,34.58193524314652
2762.0211,39.740075989556544
2763.22,36.195918410422564
2764.4182,23.849213516451982
2765.6158,28.799711956394958
2766.8127,21.447164140508676
2768.009,-0.6086798089445438
2769.2045,11.231930015825128
2770.3994,2.768749603318838
2771.5936,-8.898465170281042
2772.7872,-11.719958456479617
2773.9801,-14.19588551111633
2775.1723,-12.476284507645687
2776.3639,-10.761051802626525
2777.5548,-13.199959114537023
2778.745,-20.442670658948373
2779.9346,-27.488718783841023
2781.1235,-11.187431614916704
2782.3117,-14.48786266557795
2783.4992,-10.038953686784907
2784.6861,-8.339501695751096
2785.8723,-0.03820342054223147
2787.0579,-0.5336722776028182
2788.2428,4.0254786982732185
2789.427,0.9906418036787272
2790.6106,14.563209294951093
2791.7935,22.39457341852085
2792.9757,34.33612627518687
2794.1573,46.78925974180288
2795.3382,43.40536535186175
2796.5184,58.53583417096411
2797.698,75.43205683065798
2798.8769,87.24542337713433
2800.0551,101.92732310226211
2801.2327,120.22914442545925
2802.4096,151.70227474686794
2803.5859,150.7481002643408
2804.7615,179.16800565870494
2805.9364,196.76337410330666
2807.1106,227.28558697981157
2808.2842,244.58602370225185
2809.4572,280.31606141180464
2810.6294,319.977074803787
2811.801,362.22043577035583
2812.972,401.7975130038974
2814.1423,440.50967157459445
2815.3119,487.80827253465463
2816.4808,531.2446725311884
2817.6491,580.7202233332241
2818.8167,624.8362713973427
2819.9837,662.1941573729237
2821.15,716.395215660983
2822.3157,746.8407740405958
2823.4807,793.4321531268829
2824.645,846.520666066559
2825.8086,892.0576180720147
2826.9716,911.4943058904355
2828.134,952.3320173484324
2829.2957,999.9720311576723
2830.4567,1006.0156165065025
2831.617,1017.5640325835516
2832.7767,1020.6685285172923
2833.9358,1039.5803432605567
2835.0941,1021.3507055594939
2836.2519,1002.4308337644497
2837.4089,1002.0719360122628
2838.5653,995.3752104154648
2839.7211,996.3918450658693
2840.8761,1002.823018101536
2842.0306,1035.969897696609
2843.1843,1073.033641997002
2844.3374,1128.8653987889309
2845.4899,1175.266305128277
2846.6417,1257.2874867822684
2847.7928,1333.0800577654686
2848.9433,1404.395119519569
2850.0931,1468.7837601554609
2851.2422,1561.8970537400842
2852.3907,1638.136059652543
2853.5385,1686.9018216529696
2854.6857,1742.095367120138
2855.8323,1807.517706563802
2856.9781,1850.069833072765
2858.1233,1907.5027216606536
2859.2679,1932.5673288403955
2860.4118,1971.5645920498935
2861.555,2026.2954294013782
2862.6976,2052.960739291433
2863.8395,2063.761399853689
2864.9808,2112.498268692168
2866.1214,2104.872182773282
2867.2614,2122.483957938459
2868.4007,2136.134388980407
2869.5393,2139.7742494669947
2870.6773,2159.654291604748
2871.8146,2172.6252462024504
2872.9513,2171.937822472344
2874.0874,2158.6427079004193
2875.2227,2162.590568253286
2876.3574,2149.4820477111316
2877.4915,2118.0677688282353
2878.6249,2088.898332664059
2879.7577,2056.7243190973877
2880.8898,2031.0462871180227
2882.0212,2028.9147751485227
2883.152,2010.480301300985
2884.2821,1991.6433633983602
2885.4116,1984.404439158796
2886.5405,1995.1639863840069
2887.6686,1984.7724430316655
2888.7962,1989.0302271078017
2889.923,2001.337736770724
2891.0493,2014.8953502884383
2892.1748,2036.403425915574
2893.2997,2043.2123017578072
2894.424,2042.5722955567803
2895.5476,2066.383704622015
2896.6706,2098.046805837308
2897.7929,2135.711855422623
2898.9145,2155.429088617453
2900.0355,2177.348719304176
2901.1559,2210.8709398108776
2902.2756,2247.7459206921576
2903.3946,2278.7238103939067
2904.513,2300.904734884555
2905.6308,2321.0387973452957
2906.7479,2342.276077948276
2907.8643,2364.066633655253
2908.9801,2377.810498005225
2910.0953,2399.4076808965237
2911.2098,2375.7581684493744
2912.3236,2397.91192278993
2913.4368,2376.818882286758
2914.5494,2366.578961329311
2915.6613,2333.892050538851
2916.7725,2312.2080168708517
2917.8831,2315.0267039418677
2918.9931,2249.747932246373
2920.1024,2226.821499128576
2921.211,2203.5971794352067
2922.319,2192.724725744779
2923.4264,2188.4038685998366
2924.5331,2163.334316615678
2925.6391,2149.31575652356
2926.7445,2148.0478534214008
2927.8493,2129.8302509139594
2928.9534,2142.8625711255168
2930.0569,2125.444414882053
2931.1597,2108.975361580923
2932.2619,2113.05496936504
2933.3634,2098.782775287561
2934.4643,2099.1082952710976
2935.5645,2072.931024250432
2936.6641,2043.7004361692643
2937.763,2003.8659842419836
2938.8613,1945.8271012459759
2939.959,1897.1331999199679
2941.056,1816.3336735444157
2942.1523,1727.8778964284427
2943.248,1635.315224717839
2944.3431,1557.1949972796153
2945.4375,1449.066536627631
2946.5313,1343.9291497037957
2947.6244,1258.0321289593535
2948.7169,1142.824753406258
2949.8087,1073.406289476142
2950.8999,979.4259921723915
2951.9904,891.0831057643304
2953.0803,816.7768647270223
2954.1696,749.0064946247003
2955.2582,703.12121285383
2956.3462,662.5702293208126
2957.4335,627.7527469008373
2958.5202,601.6179618433919
2959.6062,580.3150641204372
2960.6916,559.1432376877547
2961.7764,538.201660697976
2962.8605,526.9395057123002
2963.9439,515.7059399099103
2965.0267,512.9001252005953
2966.1089,515.8212183370849
2967.1905,509.8183709431082
2968.2714,517.7907294841816
2969.3516,510.5374353276395
2970.4312,518.7576246629087
2971.5102,524.9004285740425
2972.5885,535.9149729575175
2973.6662,534.5503784608067
2974.7432,525.805760372234
2975.8196,515.1802286346199
2976.8954,516.4728879327274
2977.9705,515.6328377995176
2979.045,492.3591726032233
2980.1188,484.8509815557494
2981.192,470.45734894540897
2982.2645,446.3273542120055
2983.3364,434.61007209076934
2984.4077,401.75457285365746
2985.4783,378.75992242652694
2986.5483,351.8251827176888
2987.6177,320.2494118478545
2988.6864,292.0816644194856
2989.7545,257.2209918325493
2990.8219,228.36644256619627
2991.8887,211.71706252736817
2992.9548,178.57189533934297
2994.0204,151.0299825082277
2995.0852,127.14036375441196
2996.1495,109.60207728798548
2997.2131,80.76416004763462
2998.276,73.42564787602555
2999.3383,45.38557580818269
3000.4,34.992978144874655
3001.4611,28.196888733014475
3002.5215,18.79634106958588
3003.5812,9.840368369603539
3004.6404,0.07800366011952065
3005.6989,6.158279869782405
3006.7567,-16.56977007353919
3007.8139,-10.107113303559117
3008.8705,-9.35455142198839
3009.9264,-11.362785060477108
3010.9818,-15.482421398706379
3012.0364,-4.16395410213579
3013.0905,-5.257722166835379
3014.1439,-7.164022990974672
3015.1966,-5.783101448079037
3016.2487,6.634869156915215
3017.3002,10.839773292255018
3018.3511,13.081495359839437
3019.4013,19.65991965316971
3020.4509,20.024930334933515
3021.4998,16.776411371219297
3022.5481,30.014246527867044
3023.5958,32.238319402953266
3024.6428,41.64851329441228
3025.6892,41.89471117779567
3026.735,46.12679561217021
3027.7802,51.79464873765619
3028.8247,66.04815223310675
3029.8685,72.93718725942858
3030.9118,77.16163431704729
3031.9544,79.67137317701679
3032.9963,101.06628283877569
3034.0376,100.19624150504717
3035.0783,105.66112636789353
3036.1184,117.26081361741274
3037.1578,121.74517838709289
3038.1966,136.81409463781404
3039.2348,140.01743511300435
3040.2723,134.00507118795213
3041.3092,140.87687283777075
3042.3455,147.28270869752373
3043.3811,142.72244599350597
3044.4161,141.64595047918624
3045.4505,134.05308648080893
3046.4842,135.34371690815908
3047.5173,129.2677033304908
3048.5498,129.7249059636215
3049.5816,117.36518373069146
3050.6128,123.83839425759254
3051.6434,126.89439399656544
3052.6734,128.13303816146595
3053.7027,118.15418069720727
3054.7314,113.15767426737182
3055.7594,113.14337035400126
3056.7868,117.31111930756083
3057.8136,107.21077034708185
3058.8398,109.84217151848509
3059.8653,116.95516979558374
3060.8902,105.34961105376942
3061.9145,109.12533999888228
3062.9381,97.38220028326612
3063.9612,98.87003446801225
3064.9835,96.78868414038993
3066.0053,90.4379898989688
3067.0264,92.96779137443173
3068.0469,94.27792729308203
3069.0668,82.21823545154564
3070.086,88.93855270366907
3071.1046,73.23871508111677
3072.1226,64.76855772616796
3073.1399,57.07791504871511
3074.1567,52.666620810965014
3075.1727,56.284508204346025
3076.1882,45.53140989362066
3077.203,34.40715798070676
3078.2173,36.461584112207845
3079.2308,31.84451959065632
3080.2438,24.10579535396886
3081.2561,19.895242021616923
3082.2678,21.51268997201379
3083.2789,9.407969384620742
3084.2893,9.080910223772094
3085.2991,13.781342359722885
3086.3083,1.6590955719187264
3087.3169,7.613999501992282
3088.3248,3.4958837749850318
3089.3321,-1.6454220602010992
3090.3388,-0.6600884896229786
3091.3449,-2.8482695615715556
3092.3503,1.8398872699463595
3093.3551,-1.3457369948631595
3094.3593,-5.505261374192742
3095.3629,-7.888791442322486
3096.3658,3.0536222240284587
3097.3681,-3.2279921428326475
3098.3698,-6.033606341134657
3099.3708,-0.11315992146489862
3100.3713,-3.516532158683617
3101.3711,-1.6436011971836137
3102.3702,0.20578994879861057
3103.3688,3.7818146846022955
3104.3667,1.7346443597245411
3105.364,3.4144502858447368
3106.3607,-3.0785962427042364
3107.3568,2.1556760342657526
3108.3522,0.7674691321191176
3109.347,8.756985044663622
3110.3412,6.874418098690512
3111.3348,11.46996253342121
3112.3277,6.843812519333255
3113.32,7.846162112204411
3114.3117,15.677205299374805
3115.3028,16.18713598972306
3116.2932,15.526147935355823
3117.2831,13.49443472650887
3118.2723,17.042189798156528
3119.2608,14.619606450329059
3120.2488,22.82687781263462
3121.2361,19.864196868485465
3122.2229,19.081756373025087
3123.209,20.429748882755234
3124.1944,24.95836676336023
3125.1793,27.66780217622727
3126.1635,24.008247033159932
3127.1471,26.67989296928357
3128.1301,29.832931379641593
3129.1125,32.46755339247812
3130.0942,36.63394983770826
3131.0753,35.03231122057173
3132.0558,38.76282767996889
3133.0357,33.125689004477465
3134.015,33.02108459504683
3134.9936,37.94920352136978
3135.9716,38.0602345229284
3136.949,41.65436595971278
3137.9258,44.33178581111105
3138.902,42.2426816399676
3139.8775,44.187240565809134
3140.8524,44.56564928573587
3141.8267,52.42809405497536
3142.8004,52.124760683099055
3143.7735,44.45583445539771
3144.7459,51.821500135914505
3145.7178,57.22194204413444
3146.689,48.60734398132777
3147.6596,61.27788917654527
3148.6295,54.08376037276463
3149.5989,55.425139700184815
3150.5676,60.25220874816705
3151.5357,57.21514855182156
3152.5032,56.014139543736405
3153.4701,62.04936158434853
3154.4364,61.77099397395324
3155.402,63.529215392352654
3156.367,61.57420390163887
3157.3315,71.05613692861198
3158.2952,66.32519128433023
3159.2584,64.3815430692903
3160.221,72.97536772073732
3161.1829,69.85684003210122
3162.1442,74.37613406705813
3163.105,73.28342319071606
3164.065,68.4288800244218
3165.0245,79.21267645668775
3165.9834,75.8349836917377
3166.9416,78.94597214166876
3167.8993,73.9958114602282
3168.8563,73.18467051170364
3169.8127,80.06271742042469
3170.7684,79.28011957887432
3171.7236,82.38704357890845
3172.6782,83.28365521958187
3173.6321,83.020119476079
3174.5854,82.99660049074785
3175.5381,86.26326157573544
3176.4902,88.12026521322275
3177.4417,88.36777302275817
3178.3926,91.20594574268767
3179.3428,87.83494322767939
3180.2924,97.4549244203422
3181.2415,92.41604738493552
3182.1899,96.26846921116979
3183.1377,100.06234606459489
3184.0848,105.6978331480762
3185.0314,103.57508466385565
3185.9773,101.39425375719699
3186.9227,105.2054925376132
3187.8674,99.95895210067468
3188.8115,104.90478248989696
3189.755,108.74313274920608
3190.6979,105.02415087348044
3191.6402,107.947983770167
3192.5818,112.51477729647131
3193.5229,114.9246762301191
3194.4633,110.7778242236883
3195.4031,114.92436378051006
3196.3423,113.11443629613743
3197.2809,115.89818201687974
3198.2189,119.37574005790208
3199.1563,122.69724837538779
3200.0931,121.6128437317629
3201.0292,120.072661662481
3201.9648,123.82683648686734
3202.8997,121.22550132352052
3203.834,131.76878805277084
3204.7677,130.95682734269357
3205.7008,126.43974854367622
3206.6333,129.21767969653803
3207.5652,130.2907475777008
3208.4964,131.7090776714096
3209.4271,130.822794159002
3210.3571,141.5820199047249
3211.2865,136.0368764645972
3212.2154,137.63748397881776
3213.1436,139.58396122721655
3214.0712,142.2264256132488
3214.9982,145.76499314453008
3215.9246,141.94977840641178
3216.8503,145.53089452659532
3217.7755,145.85845321328435
3218.7001,147.6325647193736
3219.624,152.5033378391733
3220.5473,147.3208798906681
3221.4701,152.23529666680923
3222.3922,151.9966924873393
3223.3137,159.00517014964777
3224.2346,158.36083093115732
3225.1549,156.96377451923888
3226.0746,161.86409901765524
3226.9937,163.61190096053124
3227.9121,163.457275263351
3228.83,163.0003152054794
3229.7473,162.84111243170878
3230.6639,170.77975695682827
3231.5799,166.3163371672158
3232.4954,169.95093974145183
3233.4102,169.3836496949535
3234.3244,170.86455034362848
3235.238,172.54372330954791
3236.151,176.9212485061375
3237.0634,179.3472041213857
3237.9752,178.37166657406843
3238.8864,175.39471048948965
3239.797,182.6664087092366
3240.7069,180.48683232094947
3241.6163,185.35605058560424
3242.5251,181.72413095930864
3243.4332,184.1911390446099
3244.3408,187.35713862681388
3245.2477,186.42219164931512
3246.154,191.4363581819367
3247.0598,187.79969643027982
3247.9649,190.56226268558208
3248.8694,189.67411136108404
3249.7733,193.1852949644037
3250.6766,193.8958641064179
3251.5793,199.35586746615047
3252.4814,192.3153517836667
3253.3829,199.02436180547295
3254.2838,198.3329403549223
3255.1841,198.94112826512406
3256.0838,194.54896438585808
3256.9829,202.70648557749294
3257.8814,201.46372675490755
3258.7792,203.87072080591597
3259.6765,203.22749860369487
3260.5731,203.23408898271367
3261.4692,207.39051874516684
3262.3647,207.0468126609078
3263.2595,207.20299342588478
3264.1538,202.55908166557793
3265.0474,208.7650959334373
3265.9404,208.22105275732213
3266.8329,208.47696657744066
3267.7247,209.23284975179052
3268.616,207.53871255359968
3269.5066,204.54456316376752
3270.3966,203.40040768780628
3271.286,202.60625018578259
