RamanShift,CorrectedData
30.1047,6906.186161093463
32.3739,6459.074576228538
34.6426,6005.3129223017495
36.9109,5554.251065660493
39.1787,5107.738812599027
41.4461,4665.975913869105
43.7131,4213.662069145087
45.9796,3768.5969314415697
48.2456,3323.4801116365293
50.5112,2883.7111829219675
52.7764,2436.589685255085
55.0411,1999.265129755969
57.3054,1556.9370031788094
59.5692,1125.3547722851436
61.8326,694.6178882671383
64.0955,255.47579106341277
66.3579,-161.62208633359262
68.6199,-568.9263134861956
70.8815,-949.6358453520712
73.1426,-1214.6939533150241
75.4032,-1178.2844218967641
77.6634,-368.97890082641106
79.9231,2338.512731228292
82.1824,9169.584281698819
84.4412,25533.329534631514
86.6995,52569.69218237688
88.9574,59444.365661952135
91.2148,58971.44288467757
93.4717,58483.81616742983
95.7282,58011.92723737111
97.9842,57547.31723682546
100.2398,57076.67672799766
102.4949,56609.84569761932
104.7495,56150.663561655296
107.0036,55687.71916997199
109.2573,55226.85081092916
111.5105,54761.946216009375
113.7632,54302.84256442674
116.0154,53834.32648777586
118.2672,53381.83407462294
120.5185,52925.45087519093
122.7693,52466.361905884434
125.0197,52004.951653853546
127.2696,51548.80408158474
129.519,51090.752631514995
131.7679,50636.780230593235
134.0163,50177.919294860876
136.2642,49721.051733991524
138.5117,49269.558955879635
140.7587,48826.92187120912
143.0052,48371.17089796832
145.2512,47931.43596587634
147.4967,47486.49652094062
149.7417,47038.08152985421
151.9863,46592.069484445194
154.2304,46147.6884061609
156.4739,45699.66585052791
158.717,45263.12891159595
160.9596,44820.5542264181
163.2017,44382.517979416116
165.4433,43948.04590680626
167.6844,43513.363300979596
169.925,43080.74501484675
172.1651,42648.16546618471
174.4047,42214.24864196302
176.6439,41789.568102669575
178.8825,41361.646986649794
181.1206,40932.008014353385
183.3582,40504.473492613615
185.5954,40084.26531894369
187.832,39661.904985812056
190.0681,39236.86358484454
192.3037,38820.26181104797
194.5388,38408.61996706049
196.7734,37985.30796731772
199.0075,37576.29534216903
201.2411,37162.10124211075
203.4742,36762.894441876284
205.7068,36349.04334457802
207.9389,35950.41598569944
210.1704,35541.33003723358
212.4015,35139.052811669346
214.632,34747.25126608237
216.862,34356.99200615776
219.0915,33970.0412901081
221.3205,33578.66503257612
223.549,33194.87880850411
225.777,32810.0978570477
228.0044,32420.03708541377
230.2314,32036.111072708216
232.4578,31659.034073836607
234.6837,31266.620023343392
236.909,30888.032539182714
239.1339,30487.63492664254
241.3582,30127.740182130525
243.582,29728.460997178016
245.8053,29368.559762038953
248.0281,29005.848569682646
250.2503,28633.78921939282
252.472,28267.093220394738
254.6932,27907.87179557576
256.9139,27546.085885152388
259.134,27184.296150262388
261.3536,26824.36297658267
263.5727,26475.796477947202
265.7912,26125.856499946356
268.0092,25778.40262341257
270.2267,25431.194167919683
272.4436,25088.490195257575
274.6601,24738.199512904153
276.8759,24403.480677452462
279.0913,24063.04199811355
281.3061,23725.841540063695
283.5204,23393.93712784876
285.7341,23058.186348756222
287.9473,22717.04655613419
290.16,22395.12487274896
292.3721,22082.478194196316
294.5837,21757.113192120887
296.7947,21436.486317342526
299.0052,21118.553803109993
301.2152,20805.621668307198
303.4246,20500.195720632575
305.6334,20190.781559728333
307.8418,19878.98458023477
310.0495,19569.20997488445
312.2568,19264.712737620102
314.4635,18962.29766669237
316.6696,18665.119367704792
318.8752,18360.782256637962
321.0802,18075.59056282128
323.2847,17775.29833197635
325.4887,17492.80942906892
327.692,17205.227541311775
329.8949,16918.356180989613
332.0972,16636.248688334876
334.2989,16347.00823439646
336.5001,16075.18782386079
338.7007,15795.840297944218
340.9008,15519.318337111225
343.1003,15252.324463867924
345.2992,14983.01104552731
347.4976,14723.580296879125
349.6955,14453.184282883041
351.8927,14192.274921262964
354.0895,13923.953985210981
356.2856,13682.123105996434
358.4812,13425.733775649205
360.6763,13171.787349377963
362.8707,12921.585048134039
365.0646,12674.427961150948
367.258,12427.96704844635
369.4508,12183.10314329368
371.643,11944.086954686696
373.8346,11708.06906978818
376.0257,11470.099956320024
378.2162,11243.829964923447
380.4062,11007.409331538707
382.5956,10781.788179667798
384.7844,10559.516522738653
386.9726,10336.444266361344
389.1603,10120.121210550817
391.3474,9862.447051957613
393.5339,9688.771386031112
395.7199,9482.643709596261
397.9052,9270.313422590298
400.09,9071.529830124033
402.2743,8864.242144605174
404.4579,8657.899487726172
406.641,8458.250892537078
408.8235,8256.54530550899
411.0054,8060.281588530554
413.1868,7863.258520925032
415.3675,7670.024801412859
417.5477,7481.129050081938
419.7273,7294.919810319967
421.9064,7104.545550703384
424.0848,6927.754666859444
426.2627,6745.495483369959
428.4399,6566.566255539205
430.6166,6392.815171216484
432.7928,6216.640352585506
434.9683,6053.2898579018365
437.1432,5886.161683254679
439.3176,5722.653764200382
441.4914,5558.963977433705
443.6645,5401.190142422929
445.8371,5239.030023046696
448.0091,5084.281329171798
450.1806,4934.2917182747915
452.3514,4783.658796989483
454.5216,4628.480122606765
456.6913,4481.65320458098
458.8603,4343.875506081691
461.0288,4205.394445461941
463.1967,4072.007397636051
465.3639,3927.2616954643963
467.5306,3792.254631087315
469.6967,3663.3834573725544
471.8622,3539.6453892653226
474.0271,3405.7876050770137
476.1914,3270.757247722606
478.3551,3157.5514260592754
480.5182,3034.7172162366114
482.6807,2924.7516628287412
484.8426,2819.801780062662
487.0039,2698.614552917883
489.1647,2579.136938175914
491.3248,2464.765865632122
493.4843,2362.398239290531
495.6432,2264.2809385075816
497.8015,2151.060819015751
499.9592,2047.734713904727
502.1163,1950.949434753631
504.2728,1868.2017726642298
506.4287,1780.7884992288236
508.5839,1688.4063673577039
510.7386,1595.2521121532918
512.8927,1497.0224518339237
515.0461,1420.0140886654408
517.199,1336.0237099435326
519.3512,1254.44798876383
521.5029,1175.3835848617164
523.6539,1107.2271454281654
525.8043,1031.3253059003473
527.9541,963.1246906431625
530.1033,894.9719137083302
532.2519,827.6135795163282
534.3999,763.4462835379745
536.5472,707.2666129679783
538.694,649.3211473666088
540.8401,587.5564592215087
542.9856,530.769114527182
545.1305,473.79980958904343
547.2748,419.7839383290484
549.4185,368.852161408955
551.5615,331.18094584900973
553.704,285.8430738362804
555.8458,246.7080190601555
557.987,208.64239963766158
560.1276,170.16036907268426
562.2675,135.37399653148168
564.4069,103.04365127821075
566.5456,74.62835019081103
568.6837,50.4360807410776
570.8212,17.374084863586177
572.958,-9.500899363585631
575.0942,-26.882307429514185
577.2299,-44.41347990929353
579.3648,-61.2874888237784
581.4992,-72.9969625032536
583.6329,-88.53391701600776
585.766,-108.78963919071975
587.8985,-128.9045314023315
590.0304,-173.81790921733773
592.1616,-168.1678004460773
594.2922,-180.94049645798805
596.4222,-188.4706086262231
598.5515,-199.94094072836015
600.6802,-202.9824137205651
602.8083,-206.6739511490814
604.9358,-216.89244876582234
607.0626,-217.2627376500459
609.1888,-221.25748212542385
611.3144,-228.99717606099148
613.4393,-225.20010296356486
615.5636,-217.28225865820423
617.6873,-217.30738922096498
619.8103,-213.2870700782005
621.9327,-207.83070575547026
624.0544,-194.8455700405466
626.1756,-181.83686049242533
628.2961,-182.85782816293067
630.4159,-173.41172228547657
632.5351,-162.4017902648484
634.6537,-151.38127777172485
636.7716,-141.60342885270074
638.8889,-134.471486040522
641.0056,-123.18869045186148
643.1216,-101.95828185862774
645.237,-81.88349880080932
647.3518,-56.26757879881916
649.4659,-35.31375855413353
651.5793,-12.325274205555615
653.6922,2.9946384612921975
655.8043,25.392743784097547
657.9159,47.615806070607505
660.0268,68.61058937469352
662.137,93.82385727412475
664.2466,115.3023726605752
666.3556,141.39289748755255
668.4639,176.0921925555449
670.5716,209.69701725119376
672.6786,233.10412920021918
674.785,260.4102839314146
676.8907,292.41223464252107
678.9958,328.4567319272319
681.1002,366.49052345514065
683.204,391.41035361126706
685.3072,426.962963115795
687.4097,467.64508877482876
689.5115,501.35346312481124
691.6127,547.6848140258226
693.7132,584.585864324421
695.8131,614.453331390323
697.9123,662.1339267474032
700.0109,709.8243557750393
702.1089,742.6213172313219
704.2061,790.5715027761398
706.3028,838.0715966432035
708.3987,883.6182751605593
710.4941,932.5082062754955
712.5887,989.7880490991956
714.6827,1030.7044534177694
716.7761,1093.3540591195124
718.8688,1141.5334957856176
720.9608,1184.389382063826
723.0522,1232.9183251865397
725.1429,1287.9669205423415
727.233,1351.431751190692
729.3224,1323.6593873113743
731.4112,1439.6963855698705
733.4993,1504.0892893951313
735.5867,1566.034627819121
737.6735,1559.428914832948
739.7596,1573.3186487673593
741.845,1639.300312358835
743.9298,1796.5703726107022
746.014,1765.2752801333118
748.0974,1743.611467571318
750.1802,1949.7753499166429
752.2624,1865.1133247251273
754.3439,1950.2217700549154
756.4247,2054.1470453129878
758.5048,2036.0354904041742
760.5843,2170.283424691872
762.6631,2291.0871471791397
764.7413,2332.842935166307
766.8188,2431.9970430428366
768.8956,2574.245701869804
770.9718,2647.9351183883045
773.0473,2694.061473597045
775.1221,2643.1209220153833
777.1962,2672.6095912220335
779.2697,2577.3235823645737
781.3426,2792.658969864511
783.4147,2948.3118023701027
785.4862,3014.028100603071
787.557,2927.0038558020387
789.6271,3152.2850290654096
791.6966,3044.3675522215926
793.7654,2886.4973255761943
795.8335,2979.570218991117
797.901,3124.4320734633657
799.9678,3061.0787001943245
802.0339,3075.9058791410935
804.0993,3222.909359650039
806.1641,3199.23486030849
808.2282,3209.5780674747584
810.2916,3144.2346355148184
812.3544,3469.8001866989
814.4164,3131.770311854867
816.4778,3249.740567112669
818.5385,3405.656477284545
820.5986,3436.8635346853407
822.658,3550.107197573394
824.7166,3649.682889838463
826.7747,3363.6859998692453
828.832,3601.311879557623
830.8886,3965.3558471586
832.9446,4086.0631849141064
834.9999,3402.4291354125526
837.0545,3973.398900381777
839.1085,4341.26764752531
841.1618,4252.7305048127455
843.2143,3782.4325568010463
845.2662,3890.968845519885
847.3175,4212.384375174646
849.368,3455.5741110610034
851.4179,4216.032976350849
853.467,3768.2558596603485
855.5155,4090.887607445351
857.5633,3662.373028479189
859.6105,3454.906890626313
861.6569,3860.833925127474
863.7027,3297.3988286743916
865.7478,3705.446259350443
867.7922,3597.020842265054
869.8359,4062.5671654732505
871.8789,3440.7797810598786
873.9212,4031.2532004841487
875.9629,4272.931900797521
878.0039,4265.010318738969
880.0441,4151.732848318126
882.0837,4199.74384089456
884.1226,4232.6376063105345
886.1609,4179.508412410869
888.1984,3925.1504847140386
890.2352,4468.458006943496
892.2714,3806.0251235712058
894.3069,4208.79593438458
896.3416,3996.6645011108267
898.3757,3991.9248433891626
900.4091,3347.620940892193
902.4418,4450.046733373267
904.4739,3951.296127109563
906.5052,4150.962983877813
908.5358,3828.041125941818
910.5658,3659.7743340557645
912.595,3701.756350693453
914.6236,3049.480881730982
916.6515,4252.591596026839
918.6786,3149.6821319447845
920.7051,3535.546085322683
922.7309,3554.0270205016204
924.756,3868.6184664672255
926.7804,3656.013916664924
928.8041,3072.0568258539424
930.8272,3645.240612233407
932.8495,3670.9586632819046
934.8711,3174.8543300256497
936.892,2910.3709267813174
938.9123,3087.851736117045
940.9318,2749.3900114972857
942.9506,2645.578975508033
944.9688,2749.0618232414126
946.9862,2022.8317233337584
949.003,2411.68181693081
951.019,1865.6552249500164
953.0344,2091.345044192014
955.0491,2158.0443528009346
957.063,2470.1962080075027
959.0763,2654.7436454620183
961.0888,2377.1296761128397
963.1007,2786.997284360892
965.1119,2807.5894308358475
967.1223,2624.9990482974026
969.1321,3073.619041429374
971.1412,2652.542288665616
973.1495,2501.1616377038226
975.1572,2845.4199097162564
977.1641,2793.509900863588
979.1704,2737.774378852344
981.1759,2782.75608345394
983.1808,2717.897727062089
985.1849,2860.591994242968
987.1884,3094.7815423838474
989.1911,3589.009000266058
991.1932,3087.3169657231265
993.1945,3317.748000698506
995.1951,3480.344636262518
997.1951,3156.6493703080123
999.1943,3010.0046659243962
1001.1928,2866.502954634656
1003.1906,2986.0366378617546
1005.1877,2726.448088363679
1007.1841,2537.1296490380555
1009.1798,2531.723635518101
1011.1748,2288.9723380657088
1013.1691,2096.4180216256063
1015.1627,1596.2029282527947
1017.1556,1322.0192790381552
1019.1477,1436.7092791105606
1021.1392,1157.465120378729
1023.1299,940.1789803842621
1025.12,1053.0930250941165
1027.1093,940.2994110734799
1029.0979,1006.6402843566029
1031.0859,985.4077815747587
1033.0731,834.744029292895
1035.0596,812.6911442218625
1037.0454,623.7912347251477
1039.0304,459.8864010393445
1041.0148,241.06873716316477
1042.9985,125.2803324964334
1044.9814,256.2132740283341
1046.9636,124.10964749530831
1048.9452,87.76153607164451
1050.926,83.4110216905392
1052.9061,47.00018540763995
1054.8855,59.221107444449444
1056.8642,27.165867552546842
1058.8421,177.72654489130946
1060.8194,154.24521834849293
1062.7959,112.21396503458527
1064.7717,167.9748605176501
1066.7469,252.11997924363823
1068.7213,152.94139397878462
1070.695,139.83117496813065
1072.6679,-20.01860907266382
1074.6402,-37.01589082623832
1076.6117,45.53139722499327
1078.5826,133.1153229687843
1080.5527,157.27795383759076
1082.5221,277.16135593275976
1084.4908,625.5075937828879
1086.4587,831.2587291449381
1088.426,1091.4568175208406
1090.3925,922.793906099927
1092.3584,912.312031156951
1094.3235,617.5032197387409
1096.2879,556.0094897690287
1098.2515,514.1728529965476
1100.2145,607.4853156099489
1102.1767,652.9388786561758
1104.1382,765.175537107345
1106.099,960.2872794062205
1108.0591,1133.6660863438447
1110.0185,1281.4039291083973
1111.9771,1391.1427675514424
1113.9351,1064.3245487105305
1115.8923,679.8412057117821
1117.8488,318.684661038169
1119.8045,-10.053169625789451
1121.7596,-61.33037378239533
1123.7139,-183.80503883339406
1125.6675,-133.5846394901455
1127.6204,71.0751857483483
1129.5726,34.92013289359602
1131.524,55.745897246408276
1133.4748,236.99817375842395
1135.4248,185.62265682384168
1137.3741,315.9150384668901
1139.3226,279.4710088556167
1141.2705,318.03625499891496
1143.2176,163.40646111101523
1145.164,245.62730822577578
1147.1097,276.4444757430392
1149.0546,346.95364060637803
1150.9989,309.75047699493007
1152.9424,237.08065561833791
1154.8852,60.589844088754035
1156.8272,-53.07629235245258
1158.7686,-47.822089069799404
1160.7092,-107.20135119565384
1162.6491,-180.81740611974965
1164.5883,-26.4225102903074
1166.5267,19.88288621029642
1168.4644,218.59859726059221
1170.4014,387.8744365402745
1172.3377,755.5602155430897
1174.2732,1000.4057418840384
1176.2081,1237.7608156225324
1178.1421,1364.825226813955
1180.0755,1590.0987531361025
1182.0082,1485.2311586185097
1183.9401,1527.9221913897345
1185.8713,1268.6715847260639
1187.8017,1062.229056624601
1189.7315,909.394312395707
1191.6605,503.71704672748456
1193.5888,347.64694521406636
1195.5163,258.43368841245683
1197.4432,178.67695340319187
1199.3693,87.87641468246875
1201.2947,17.2317449597831
1203.2193,-46.35738393417705
1205.1432,33.05869965898455
1207.0664,65.08013050800946
1208.9889,165.75704305102408
1210.9106,192.339571075383
1212.8316,227.2278467108481
1214.7519,394.4220001638241
1216.6715,348.5721593684357
1218.5903,391.92844831461116
1220.5084,262.4409875065685
1222.4257,364.2598935292772
1224.3424,180.5852803433154
1226.2583,303.46725826670445
1228.1735,375.605935811589
1230.0879,475.30141845546314
1232.0016,631.0538079197577
1233.9146,678.4132011729453
1235.8269,536.7796888729426
1237.7384,499.45335489355057
1239.6492,227.88427774079173
1241.5592,182.02253092616593
1243.4686,87.11818568232411
1245.3772,77.02131142172584
1247.285,-44.168023314356105
1249.1922,-89.1997507548731
1251.0986,-9.423361890214437
1253.0042,-84.63745660525456
1254.9092,6.80945935449563
1256.8134,124.86972577171036
1258.7169,349.0456144025484
1260.6196,491.6393957544751
1262.5216,685.9033368445271
1264.4229,875.0896997733798
1266.3234,1036.3007397826805
1268.2232,1131.4887033632185
1270.1223,1066.9058266427674
1272.0207,1146.1043344342215
1273.9183,1102.0864408814377
1275.8151,1013.9043486672417
1277.7113,947.0602494536106
1279.6067,789.0063247634789
1281.5014,577.5947466491889
1283.3953,502.1776792730743
1285.2885,436.3572810215155
1287.181,394.23570525915056
1289.0727,536.2151009870722
1290.9637,490.1976132640302
1292.854,714.3853817866402
1294.7435,851.5305413495626
1296.6323,1087.8352196035958
1298.5204,1423.851535684269
1300.4077,1674.8815978487728
1302.2943,1907.4275001157985
1304.1802,2062.4413197552385
1306.0653,1995.8751149627096
1307.9497,1921.3809233094435
1309.8333,1839.1607624079224
1311.7162,1879.3166306568455
1313.5984,2026.1505080633106
1315.4798,2169.814355841281
1317.3605,2393.3101149432405
1319.2405,2615.2397046235383
1321.1197,2686.3550202034385
1322.9982,2656.057930851821
1324.876,2708.65027887404
1326.753,2678.6338800148624
1328.6293,2789.2105229325643
1330.5048,2912.7819694991013
1332.3796,2884.099953694302
1334.2537,2885.316180370195
1336.127,2833.2323255378433
1337.9996,2829.400036355153
1339.8714,2773.1709316477354
1341.7426,2717.796601947215
1343.6129,2708.8286100535006
1345.4826,2656.368491588564
1347.3515,2625.6177550860994
1349.2196,2577.827882516107
1351.087,2678.550329592439
1352.9537,2721.1865262506653
1354.8197,2908.287875640868
1356.6849,3161.6557537012814
1358.5493,3241.341507287274
1360.4131,3234.3964516376655
1362.276,3147.7218695778574
1364.1383,2974.269011589324
1365.9998,2768.8390966763036
1367.8606,2481.43331410037
1369.7206,2254.302825434712
1371.5799,2102.8487674381977
1373.4384,1935.3722543266886
1375.2962,1894.0743792875728
1377.1533,1621.3062161545495
1379.0096,1331.2188198205804
1380.8652,1099.463228965582
1382.7201,847.6904689573021
1384.5742,596.8015541688728
1386.4275,487.0474904965413
1388.2802,396.7292778685296
1390.132,317.4479113426314
1391.9832,305.40438200938297
1393.8336,183.74967778486462
1395.6832,148.93478353111277
1397.5322,94.66068227269352
1399.3803,80.47835554484482
1401.2278,2.338783936225809
1403.0745,55.09294723070707
1404.9204,-49.508198152314435
1406.7656,42.5363036556555
1408.6101,19.227903109986073
1410.4538,19.768050240723824
1412.2968,65.50819488565321
1414.139,71.79978668490367
1415.9805,203.89427462354433
1417.8213,283.5931069686594
1419.6613,350.14772994838495
1421.5006,603.3595869549354
1423.3391,912.1801178790665
1425.1769,1258.060756577961
1427.0139,1828.1529277870031
1428.8502,2476.008043661004
1430.6858,3074.277498073254
1432.5206,3500.8626601369688
1434.3547,3784.4648682225998
1436.188,3814.98542569199
1438.0206,3820.1755980623348
1439.8524,3658.8366127009795
1441.6835,3584.01965877353
1443.5139,3570.475888857247
1445.3435,3506.7064196891915
1447.1724,3450.062332301688
1449.0005,3361.844672660016
1450.8279,3292.654452228853
1452.6545,3295.5426488544363
1454.4804,3399.9602074564646
1456.3056,3416.758039999222
1458.13,3322.087024447399
1459.9536,3134.9980045981247
1461.7766,2840.391791027683
1463.5987,2348.61916296239
1465.4202,1993.6808712246238
1467.2409,1676.4276431506114
1469.0608,1446.2101861397605
1470.88,1201.97919082722
1472.6984,1042.1853333860563
1474.5161,780.5292779695556
1476.3331,662.81167830915
1478.1493,612.7831803309673
1479.9648,564.0444233330454
1481.7795,479.44604048558904
1483.5935,473.03865931836117
1485.4067,433.9729025666784
1487.2192,410.3993882354771
1489.031,401.0187299899553
1490.842,379.08153739136105
1492.6522,401.9384159907495
1494.4618,408.1899675483801
1496.2705,396.1867898051314
1498.0785,424.07947641999635
1499.8858,374.96861709010045
1501.6924,384.0047972717948
1503.4981,373.08859867174033
1505.3032,431.37059915656573
1507.1075,460.15137286200843
1508.911,436.9314896101205
1510.7138,454.6615146214426
1512.5159,403.7920087472121
1514.3172,361.7735282920621
1516.1178,348.3566255227124
1517.9176,354.0418490881748
1519.7166,307.92974415389835
1521.515,306.17085234493425
1523.3126,281.7157122070421
1525.1094,278.8648592242753
1526.9055,263.0188260635405
1528.7008,253.5781426031208
1530.4954,159.8433360911149
1532.2893,244.56493123986002
1534.0824,194.3434511632695
1535.8747,240.97941652963345
1537.6663,219.12334606379954
1539.4572,229.7257560808539
1541.2473,234.9871607046589
1543.0367,212.25807176182207
1544.8253,199.78899872909096
1546.6132,244.43044896063657
1548.4003,223.68292781272976
1550.1867,261.9469381973613
1551.9723,286.07298078966414
1553.7572,318.4615536453275
1555.5414,368.71315195930583
1557.3247,341.7782677419236
1559.1074,418.157389316395
1560.8893,510.75100158815985
1562.6705,570.9595852811035
1564.4509,639.8336160115941
1566.2305,713.7735636864345
1568.0094,876.6798918141067
1569.7876,987.1530567653535
1571.565,1038.943506144129
1573.3417,1128.3016776828663
1575.1176,1158.1279987245543
1576.8928,1169.5228853291992
1578.6672,1091.8867419755152
1580.4409,999.1699614469908
1582.2138,835.5729256082777
1583.986,733.7960063323117
1585.7575,661.4895671363047
1587.5282,548.653964199515
1589.2981,560.4895470863084
1591.0673,473.8466598745217
1592.8358,506.8256410371032
1594.6035,532.4768243085346
1596.3704,498.2005383550495
1598.1366,516.1471065181213
1599.9021,537.9668471572477
1601.6668,555.360073470456
1603.4308,607.5270932761196
1605.194,722.6182088390124
1606.9564,809.1837163486452
1608.7182,939.2739047683717
1610.4791,1027.689054969691
1612.2394,1202.3794384314024
1613.9988,1386.5953163554113
1615.7576,1611.186937919847
1617.5156,1902.8045384368852
1619.2728,2194.9483371068563
1621.0293,2411.6685341020493
1622.785,2500.415307645286
1624.54,2406.838811842703
1626.2942,2251.8391757963036
1628.0477,1974.8665045396956
1629.8005,1770.0708805881295
1631.5525,1544.3023667081652
1633.3037,1312.0110079656915
1635.0542,1147.1968339835767
1636.804,1038.4598612645968
1638.553,972.2000948395507
1640.3013,903.4175293546687
1642.0488,873.6621497341785
1643.7955,897.3339318681537
1645.5416,917.5828429100402
1647.2868,1010.3088410399723
1649.0313,1045.8618752622606
1650.7751,1213.2918844781161
1652.5181,1420.6987971301533
1654.2604,1622.1325295280658
1656.0019,1933.5429837745542
1657.7427,2353.380045751015
1659.4828,2744.0435820034127
1661.222,3001.483435543916
1662.9606,3073.0494219442735
1664.6984,2936.991326761392
1666.4354,2645.1089048216945
1668.1717,2253.301881581685
1669.9072,1784.5699560468001
1671.642,1407.462804689465
1673.3761,1175.7800861363994
1675.1094,926.9714449397143
1676.8419,778.0865138937243
1678.5737,653.4749165230241
1680.3048,552.6362685713593
1682.0351,464.6201792477277
1683.7646,388.876252234777
1685.4934,376.6040865689647
1687.2215,349.85327739799504
1688.9488,287.52341610354233
1690.6754,258.16409056875636
1692.4012,248.17488580155805
1694.1263,253.95538422822938
1695.8506,247.45516579331343
1697.5742,224.3238079018065
1699.297,187.8608854841641
1701.0191,156.41597122760868
1702.7404,140.23863594075556
1704.461,84.1284488680667
1706.1808,75.23497785162544
1707.8999,69.707789892238
1709.6182,72.74645123837035
1711.3358,104.45052744141321
1713.0527,105.56958332530485
1714.7688,75.60318266947979
1716.4841,44.75088819769553
1718.1987,84.51226187768225
1719.9126,33.386865229673276
1721.6257,31.174258928784184
1723.338,43.27400331628087
1725.0496,-19.01434157831136
1726.7605,4.008783841813056
1728.4706,11.243129126714848
1730.18,-38.611556213614676
1731.8886,-49.45552278160358
1733.5964,-4.038635450237052
1735.3036,-13.41026503183457
1737.0099,40.33025800725045
1738.7156,37.033737169213055
1740.4204,-8.499024447046395
1742.1246,29.782775887049866
1743.8279,14.030025805332116
1745.5306,47.843612643813685
1747.2325,33.87442359821398
1748.9336,13.623345385820357
1750.634,21.14126438518724
1752.3336,48.429066838647486
1754.0325,19.787638777119355
1755.7307,73.01786574723883
1757.4281,100.07063309778096
1759.1247,111.74682544732423
1760.8206,86.54732641375813
1762.5158,121.57301849750002
1764.2102,87.37478333349827
1765.9039,92.2035013409768
1767.5968,99.66005206541195
1769.289,115.04531413025506
1770.9804,102.56016516234922
1772.6711,144.70548163809326
1774.361,143.2821390083027
1776.0502,159.59101127672875
1777.7386,165.98297101430762
1779.4263,142.05888919608697
1781.1132,174.5196351372906
1782.7994,156.96607673255494
1784.4849,165.89908013134118
1786.1696,170.96950991344056
1787.8535,160.47822899967287
1789.5367,204.32609860115917
1791.2192,200.363978324247
1792.9009,168.99272573202325
1794.5818,200.76319638394125
1796.2621,211.1762441495448
1797.9415,213.1327208907369
1799.6202,183.0834763576786
1801.2982,231.57935816919962
1802.9755,238.87121211329395
1804.6519,249.75988166216302
1806.3277,213.1462078993045
1808.0027,216.93102941060533
1809.6769,237.21518265051054
1811.3504,250.5995019041602
1813.0231,238.48481908453869
1814.6951,245.42196359864647
1816.3664,301.0117624686354
1818.0369,308.45504026244635
1819.7067,274.50261853789925
1821.3757,299.2053157682767
1823.044,311.51394768184036
1824.7115,312.2293270148057
1826.3783,329.0022633882545
1828.0443,294.4835633009807
1829.7096,331.57402996177734
1831.3741,346.42446363459567
1833.0379,340.835661267658
1834.701,321.258416344941
1836.3633,336.34351894207066
1838.0248,356.24175592208485
1839.6856,325.60391078458815
1841.3457,383.53076346677335
1843.005,381.42309064979236
1844.6636,414.68166517948885
1846.3214,396.457256087484
1847.9785,411.30062825858295
1849.6349,391.8625426130184
1851.2904,413.2437559580321
1852.9453,408.1450211822412
1854.5994,398.3170870418344
1856.2528,431.1606982115518
1857.9054,453.0265953829621
1859.5572,485.0155149360362
1861.2083,475.8281887204739
1862.8587,478.8153437358378
1864.5084,498.7277022233993
1866.1572,498.86598163629606
1867.8054,456.0308944403878
1869.4528,512.0731481128732
1871.0994,495.34344557065015
1872.7453,500.04248460988856
1874.3905,502.4709580733361
1876.0349,505.2795538033188
1877.6786,540.4689546174486
1879.3215,551.8398382805499
1880.9637,507.29287715276587
1882.6051,548.0787380758338
1884.2458,538.9480828185879
1885.8858,514.8015676690684
1887.525,530.1898435258481
1889.1634,540.0135561394927
1890.8011,508.27334595867615
1892.4381,546.5698480319425
1894.0743,559.3036923251057
1895.7098,544.2755033382837
1897.3446,524.7358999785683
1898.9786,515.6354957102958
1900.6118,551.4248987504561
1902.2443,538.5047121596872
1903.8761,542.1755334843892
1905.5071,502.2379548859153
1907.1374,516.6925631038685
1908.7669,521.0399398554764
1910.3957,541.430661691038
1912.0237,501.96529995046876
1913.651,523.9944205593783
1915.2776,515.0185844237349
1916.9034,498.38834720955674
1918.5285,459.45425943268856
1920.1528,474.016866625092
1921.7764,492.8767097241962
1923.3992,469.9843249272708
1925.0213,436.2402435028198
1926.6427,407.1949920195075
1928.2633,406.39909268360316
1929.8832,442.7030636294221
1931.5023,394.7074189272953
1933.1207,417.66266822053876
1934.7383,410.2193172053994
1936.3552,434.2778674015026
1937.9714,429.6888162262858
1939.5868,410.8026567544075
1941.2015,360.31987776364076
1942.8154,373.9409639237292
1944.4286,358.616396301235
1946.041,358.14665222330405
1947.6528,344.4322054309214
1949.2637,361.02352608361616
1950.8739,351.62108089659705
1952.4834,329.17533297484624
1954.0921,344.33674190713464
1955.7001,326.3057639904764
1957.3074,347.93285207853114
1958.9139,333.11845576190717
1960.5197,341.613021151883
1962.1247,311.66699102855637
1963.729,306.2808047558956
1965.3325,280.40489858120964
1966.9353,276.18970568900477
1968.5374,290.2856564597423
1970.1387,277.4931785119916
1971.7393,266.5126965614636
1973.3392,253.84463254894945
1974.9383,251.43940575011402
1976.5366,242.54743290217812
1978.1342,259.7691282279702
1979.7311,244.80490352484958
1981.3273,250.15516799248144
1982.9227,239.87032838249434
1984.5173,249.80078894497092
1986.1112,218.34695153128632
1987.7044,249.20921549482046
1989.2968,220.73797800548346
1990.8885,232.28363374110268
1992.4795,218.3465751721269
1994.0697,218.82719244617692
1995.6592,243.52587352741466
1997.2479,225.04300419172887
1998.8359,238.07896777976202
2000.4232,198.434145381726
2002.0097,219.15891570705026
2003.5955,203.70365548082282
2005.1805,219.0687392365553
2006.7648,202.354539470718
2008.3484,210.06142648910281
2009.9312,242.13976857395937
2011.5133,227.68993190692254
2013.0946,215.01228024823195
2014.6752,225.95717508122834
2016.2551,225.7749757391357
2017.8342,192.3160392956088
2019.4126,217.28072056655492
2020.9902,209.71937244472429
2022.5672,203.88234565006405
2024.1433,189.1699888053372
2025.7188,190.13264849448842
2027.2935,191.72066940977038
2028.8674,182.13439434210886
2030.4406,196.9241641652261
2032.0131,163.7403179315006
2033.5849,156.78319272407498
2035.1559,166.10312398869155
2036.7261,178.0004456032566
2038.2957,191.27548978465347
2039.8645,186.02858696976182
2041.4325,208.66006568271405
2042.9998,187.27025258735284
2044.5664,209.4094722609243
2046.1323,199.87804740796946
2047.6974,190.72629863894235
2049.2617,184.45454456551852
2050.8254,213.31310189211217
2052.3883,196.5522854785986
2053.9504,212.4224080517224
2055.5118,209.27378037270682
2057.0725,190.15671107855178
2058.6325,201.92150671352465
2060.1917,173.91847192032856
2061.7502,190.14790932245342
2063.3079,197.91011980420353
2064.8649,188.50540234840992
2066.4212,177.03405395880873
2067.9767,173.19636975408775
2069.5315,181.99264308259262
2071.0856,170.37316556071437
2072.6389,158.4382269849184
2074.1915,138.18811544794153
2075.7433,127.2731174581495
2077.2945,149.79351814202528
2078.8448,138.94960135332622
2080.3945,102.1916494478728
2081.9434,156.56994339199264
2083.4916,116.28476313010106
2085.039,117.33638704091481
2086.5857,142.12509234030313
2088.1317,135.85115507077808
2089.677,155.21484985360166
2091.2215,140.01644995152492
2092.7652,143.10622707515358
2094.3083,149.3344515349345
2095.8506,140.35139221024747
2097.3921,164.00731648713372
2098.933,137.6024903481175
2100.4731,146.13717813565654
2102.0124,175.91164281618512
2103.5511,159.7261458947669
2105.089,181.18094711735557
2106.6261,180.47630463264522
2108.1626,154.51247477752258
2109.6983,196.8397120841155
2111.2332,175.50826953943124
2112.7675,180.86839816208794
2114.301,156.2203472156216
2115.8337,193.5643641548886
2117.3657,209.10069487254987
2118.897,192.47958332562757
2120.4276,165.30127138014268
2121.9575,139.4659989773163
2123.4866,174.62400440536203
2125.0149,189.8755245578377
2126.5426,170.920794582059
2128.0695,173.31004772659162
2129.5956,173.8435155307934
2131.1211,188.07142780093
2132.6458,170.4440126048312
2134.1698,184.7114961296129
2135.693,184.22410285795013
2137.2155,191.83205542541054
2138.7373,182.13557462531844
2140.2584,181.18487933268625
2141.7787,204.38018660116813
2143.2983,173.0217116725762
2144.8171,159.409667744917
2146.3353,144.84426628598612
2147.8527,169.72571716948642
2149.3693,178.3542288206827
2150.8853,154.8300079675837
2152.4005,149.80325955466287
2153.9149,179.47418697809644
2155.4287,149.2429921360308
2156.9417,181.30987513186938
2158.454,180.02503457659168
2159.9655,174.7386672680832
2161.4764,187.95096820397885
2162.9865,158.7621306345245
2164.4958,183.77234593046524
2166.0045,177.08180387492303
2167.5124,184.74069241329744
2169.0195,170.7991977201782
2170.526,191.10750412274865
2172.0317,174.86579424020056
2173.5367,181.97424878065976
2175.0409,178.1830467035952
2176.5445,194.69236514873592
2178.0473,189.5523794739829
2179.5494,159.66326309031683
2181.0507,145.8251875131964
2182.5513,163.03832266145128
2184.0512,160.6028369956657
2185.5504,168.21889734604247
2187.0488,142.686668936758
2188.5465,151.6563153098068
2190.0435,151.1779985803205
2191.5397,143.85187934686746
2193.0353,164.6781166962419
2194.5301,146.20686827672216
2196.0241,151.93829008981083
2197.5175,144.52253667494006
2199.0101,132.20976105216778
2200.502,133.60011479632976
2201.9931,114.44374816016807
2203.4835,129.14081006043034
2204.9733,121.84144826942702
2206.4622,141.1958092680643
2207.9505,111.0540383188436
2209.438,107.66627927230547
2210.9248,115.73267486845907
2212.4109,111.45336677065188
2213.8962,102.97849548490558
2215.3809,118.10820040271665
2216.8648,102.19261988579456
2218.3479,107.08189111477077
2219.8304,85.22615024835613
2221.3121,99.12553237444263
2222.7931,99.03017172866294
2224.2733,89.74020155539802
2225.7529,87.20575410872425
2227.2317,78.72696074532814
2228.7098,81.70395194983394
2230.1872,74.28685741959362
2231.6638,90.07580603492806
2233.1397,84.77092593329235
2234.6149,101.87234435138271
2236.0894,99.63018767818812
2237.5632,84.244581283976
2239.0362,94.31564954271744
2240.5085,87.09351598593548
2241.9801,78.1783032020021
2243.4509,93.17013290835439
2244.921,61.36912604064855
2246.3904,77.47540260284313
2247.8591,57.589081985208395
2249.3271,57.66028280325918
2250.7943,78.38912309662919
2252.2608,57.775720328342686
2253.7266,73.27019117754207
2255.1917,72.12265174561162
2256.656,63.683217401237016
2258.1197,63.852002791881205
2259.5826,58.57912192817639
2261.0447,70.51468818224384
2262.5062,51.35881434041312
2263.9669,69.96161248386852
2265.4269,77.2231941802138
2266.8862,59.29367029743662
2268.3448,64.2731509312971
2269.8026,78.2117455846228
2271.2598,79.85956311750488
2272.7162,71.01671160792648
2274.1719,67.58329833527569
2275.6268,77.95942986877708
2277.0811,83.8452121018181
2278.5346,88.14075014819173
2279.9874,85.24614828324229
2281.4395,93.211509900907
2282.8908,102.28693754266624
2284.3414,91.82253281788871
2285.7914,98.31839631307412
2287.2406,85.82462769649737
2288.689,75.64132565325508
2290.1368,95.31858801020098
2291.5838,105.306511837779
2293.0302,99.70519325324949
2294.4758,82.31472732080874
2295.9206,79.13520810760201
2297.3648,81.76672885762582
2298.8082,86.10938202352645
2300.251,78.01325924028424
2301.693,82.8784512817856
2303.1343,95.70504814178821
2304.5748,103.54313898526561
2306.0147,85.84281202013972
2307.4538,94.15415441890855
2308.8922,94.62725249564119
2310.3299,95.56219162287562
2311.7669,89.70905622687405
2313.2031,95.36792977828281
2314.6387,96.48889485065229
2316.0735,66.77203306385763
2317.5076,63.41742507289018
2318.941,68.12515086502117
2320.3737,71.24528979335628
2321.8056,60.227920529745916
2323.2369,77.8731210335909
2324.6674,98.18096866201176
2326.0972,84.6015399934031
2327.5263,87.58491062434996
2328.9547,69.63115530542973
2330.3823,84.34034791137219
2331.8092,87.06256162060026
2333.2355,91.94786876813623
2334.661,99.19634081837785
2336.0858,101.95804831624991
2337.5098,91.58306081471483
2338.9332,98.82144684715695
2340.3558,96.47327403113059
2341.7778,97.93860899597985
2343.199,93.61751740632053
2344.6195,95.76006394738488
2346.0393,97.81631236823068
2347.4583,99.68632546031131
2348.8767,89.97016503692294
2350.2943,102.81789191449934
2351.7113,90.57956600977695
2353.1275,89.25524621131399
2354.543,91.14499050187851
2355.9578,118.1488559716895
2357.3718,109.66689879951628
2358.7852,97.54917398264024
2360.1978,81.54573542167554
2361.6098,93.2566360417427
2363.021,97.23192795250543
2364.4315,101.52166233105754
2365.8413,78.42588938217068
2367.2504,90.44465829540604
2368.6587,84.32801747606436
2370.0664,81.52601442499554
2371.4733,61.23869579977418
2372.8795,66.11610744272093
2374.285,55.55829458376593
2375.6899,68.31530179168658
2377.0939,55.93717307967154
2378.4973,60.07395177775743
2379.9,66.8756806566139
2381.3019,60.1424018861735
2382.7032,54.774156967612726
2384.1037,55.57098680068748
2385.5035,50.98293173741877
2386.9027,51.31003157412397
2388.3011,48.80232559729029
2389.6987,50.10985258030587
2391.0957,44.53265080853316
2392.492,59.020758066246344
2393.8876,37.824211692393874
2395.2824,37.59304843571908
2396.6765,30.52730466672574
2398.07,28.777016379977795
2399.4627,50.7422192647673
2400.8547,35.47294872261455
2402.246,44.51923964762045
2403.6366,43.131126579154625
2405.0265,29.50864361139793
2406.4156,38.901824407221284
2407.8041,23.260702334411235
2409.1918,26.13531037173925
2410.5789,28.32568126537035
2411.9652,10.381847500119875
2413.3508,15.103841277547417
2414.7358,19.191694695393835
2416.12,19.14543970036084
2417.5035,38.11510804723639
2418.8863,18.300731299355448
2420.2684,18.402340638902842
2421.6497,9.169967065060064
2423.0304,4.503641392987902
2424.4104,27.25339434614716
2425.7896,16.86925660296174
2427.1682,14.801258569324546
2428.546,13.699430482433854
2429.9232,23.36380243147778
2431.2996,19.494404368650976
2432.6753,33.49126601251055
2434.0503,33.60441688667288
2435.4246,32.583886179843375
2436.7982,18.1297027446858
2438.1711,11.091895108027984
2439.5433,22.12049161540199
2440.9148,25.115520501422907
2442.2856,9.227009779503533
2443.6557,-0.8450127880992113
2445.025,14.84948046860245
2446.3937,15.310525661273914
2447.7617,27.1381587530841
2449.1289,34.43241555409804
2450.4955,16.69333160300266
2451.8613,29.62094209416182
2453.2265,16.265282055006992
2454.5909,25.926386216761784
2455.9546,36.80428914799768
2457.3177,23.549025158025415
2458.68,21.710628188111514
2460.0416,25.58913194403749
2461.4025,39.83456991447565
2462.7627,45.296975332207694
2464.1222,71.0763810316721
2465.4811,48.422819394337694
2466.8392,41.13632209091247
2468.1966,51.366920307876626
2469.5533,53.21464482034844
2470.9093,55.52952588977678
2472.2645,47.961593245468976
2473.6191,60.160876061436284
2474.973,53.52740303207838
2476.3262,40.81120225018549
2477.6787,46.56230127327626
2479.0305,51.030727250757536
2480.3816,43.11650686641315
2481.7319,49.06966629372164
2483.0816,36.990231274996404
2484.4306,29.728227061854795
2485.7789,48.28367853601594
2487.1264,38.506610281918256
2488.4733,46.597046401165244
2489.8195,43.00501061029536
2491.165,38.98052615987899
2492.5097,32.873615870436424
2493.8538,28.184302172685875
2495.1972,27.7626071686077
2496.5398,37.25855267834186
2497.8818,46.82216024440231
2499.2231,25.553451036717888
2500.5637,17.052445756998623
2501.9035,31.319164851421647
2503.2427,48.55362859563911
2504.5812,36.45585695211412
2505.919,45.975869397774204
2507.256,27.61368504498978
2508.5924,26.119322546371677
2509.9281,26.94280027839659
2511.2631,45.63413635634652
2512.5974,29.343348626080115
2513.9309,38.97045447711389
2515.2638,32.61547100552934
2516.596,44.228414917707596
2517.9275,33.809302593874236
2519.2583,33.40814997197367
2520.5884,38.02497265185866
2521.9178,31.40978589930046
2523.2465,32.86260459982623
2524.5745,24.483443324864766
2525.9018,21.922316317220975
2527.2284,26.47923757486751
2528.5543,28.354220876552063
2529.8796,39.247279736232485
2531.2041,32.808427384323295
2532.5279,39.337676658771215
2533.851,38.985040069436764
2535.1735,35.65052973280535
2536.4952,48.68415737551322
2537.8163,44.685934367693335
2539.1366,40.20587159263823
2540.4562,57.09397948678088
2541.7752,59.25026808449593
2543.0935,62.92474684921899
2544.411,56.21742465188527
2545.7279,62.42830973418222
2547.0441,75.407409775627
2548.3596,77.4047318314515
2549.6744,74.22028220281618
2550.9885,74.20406641683348
2552.3019,69.10608925841552
2553.6146,67.87635477043386
2554.9266,82.46486630470281
2556.2379,66.12162653427094
2557.5485,71.99663730754128
2558.8585,59.73989981169916
2560.1677,81.30141451396366
2561.4762,92.23118128415672
2562.7841,93.27919917908503
2564.0913,85.89546633324699
2565.3977,77.27997994834868
2566.7035,99.28273636714403
2568.0086,98.90373115958619
2569.313,94.29295890280446
2570.6167,98.85041318488948
2571.9197,96.22608665100233
2573.222,99.9699709578017
2574.5236,99.33205679968478
2575.8246,102.56233387135035
2577.1248,114.51079087417611
2578.4244,102.92741548391996
2579.7232,120.91219423123039
2581.0214,107.5651126174821
2582.3189,124.53615493492907
2583.6157,117.12530440017576
2584.9118,128.23254298446432
2586.2072,124.40785148778764
2587.5019,145.90120942781186
2588.7959,122.26259507812551
2590.0893,142.39198525330585
2591.3819,141.3393555453049
2592.6739,142.30468012215533
2593.9652,146.48793173849822
2595.2557,151.28908172592764
2596.5456,162.70809995115883
2597.8348,158.79495476801662
2599.1234,148.74961290324745
2600.4112,158.8220394956479
2601.6983,155.66219819651883
2602.9848,148.27005106894285
2604.2705,144.59555861938065
2605.5556,153.73867987159156
2606.84,149.64937240338327
2608.1237,147.87759225517698
2609.4067,149.8732939709016
2610.689,140.18643061571106
2611.9707,152.2669537560273
2613.2516,142.51481355641022
2614.5319,151.92995865875105
2615.8115,146.11233627979323
2617.0903,140.91189211698088
2618.3685,148.87857040663516
2619.6461,141.5623139759598
2620.9229,139.06306416337338
2622.199,150.83076089167275
2623.4745,156.2153426930256
2624.7493,138.71674659129144
2626.0234,132.08490804817802
2627.2968,148.16976113822693
2628.5695,143.82123861513242
2629.8415,146.2392717508908
2631.1128,152.67379037928754
2632.3835,145.2247228717149
2633.6535,138.74199607282867
2634.9228,130.7755353750381
2636.1914,139.7752647833322
2637.4593,147.84110699494568
2638.7265,155.62298330935846
2639.9931,140.57081354764296
2641.259,143.5845159746441
2642.5242,131.4640074495028
2643.7887,145.20920339551412
2645.0525,150.27001792133365
2646.3156,132.79636368352521
2647.5781,131.0881518359547
2648.8398,136.34529220452464
2650.1009,129.66769330425723
2651.3613,122.55526228672193
2652.6211,125.05790500681155
2653.8801,120.77552609386771
2655.1385,125.15802892665351
2656.3961,135.35531567617772
2657.6531,138.11728726187016
2658.9094,132.7438432496076
2660.1651,144.23488182409346
2661.42,136.2402998425939
2662.6743,137.2599927200274
2663.9279,138.1938545089106
2665.1808,143.09177788916122
2666.433,147.0536541587594
2667.6846,156.5293731847687
2668.9354,153.16882336371646
2670.1856,163.27189152683718
2671.4351,158.08846297367904
2672.6839,163.91842137107096
2673.9321,156.6116488049597
2675.1795,180.56802572210836
2676.4263,158.58743100316428
2677.6724,172.71974172309456
2678.9179,172.31483337099348
2680.1626,176.7225797087574
2681.4067,169.29285277513645
2682.6501,179.5755228416549
2683.8928,179.52045848691046
2685.1348,168.37752649374443
2686.3761,170.7965918497955
2687.6168,159.27751785892633
2688.8568,167.97016611703475
2690.0961,156.77439662724373
2691.3348,170.04006771297531
2692.5727,159.91703612990682
2693.81,162.05515693331563
2695.0466,162.90428357930932
2696.2826,144.41426790344372
2697.5178,146.03496011223342
2698.7524,153.11620896805084
2699.9863,153.90786177291898
2701.2195,159.4097642976999
2702.452,163.0217607741779
2703.6839,159.84369384004026
2704.9151,150.12540450275878
2706.1456,170.9667321713673
2707.3755,173.91751475364663
2708.6046,183.5275884477103
2709.8331,187.24678771249864
2711.0609,189.1749451716762
2712.2881,195.96189157643926
2713.5145,204.55745578623578
2714.7403,215.8614647008958
2715.9654,227.72374317467575
2717.1899,230.59411390321884
2718.4136,252.1723973049302
2719.6367,261.9584114922752
2720.8591,258.45197205599516
2722.0809,279.602891967249
2723.3019,287.0109816126753
2724.5223,292.1260485828868
2725.7421,293.5478975983849
2726.9611,285.5763304584125
2728.1795,269.0111460267335
2729.3972,279.70214031134924
2730.6142,270.59910663014944
2731.8306,257.05183550400443
2733.0462,244.56011474779348
2734.2612,216.87372960587936
2735.4756,194.24246287702476
2736.6892,190.46609519125377
2737.9022,163.74440523616795
2739.1145,149.3271697947073
2740.3262,140.56416401236947
2741.5372,134.50516154137972
2742.7475,117.19993462832304
2743.9571,100.69825417473294
2745.1661,86.8498899101437
2746.3744,82.90461055710853
2747.582,81.56218396968166
2748.7889,75.77237717287176
2749.9952,55.23495637606675
2751.2008,54.499687030932364
2752.4057,50.866334036785474
2753.61,30.534661747946984
2754.8136,42.70443401007515
2756.0165,30.425414363483014
2757.2188,29.097365921439177
2758.4204,34.97005149295842
2759.6213,36.54323359608247
2760.8215,28.866674399153226
2762.0211,22.89013570508041
2763.22,23.91337902810824
2764.4182,27.086165653578973
2765.6158,22.158256627701803
2766.8127,9.329412725825932
2768.009,5.5493945017174156
2769.2045,13.017962415849752
2770.3994,4.034876873203075
2771.5936,-1.9501018514208681
2772.7872,-3.5372135235691076
2773.9801,-13.726678427271509
2775.1723,-6.668681509795761
2776.3639,-8.013270588893647
2777.5548,-17.860426862187296
2778.745,-20.01005147472665
2779.9346,-7.361867145897122
2781.1235,-7.915396694671472
2782.3117,-20.920089394969864
2783.4992,-11.725315445900378
2784.6861,-17.88023605487774
2785.8723,-7.383895293417936
2787.0579,-14.935158609478094
2788.2428,-5.3328176859020004
2789.427,7.624484996702222
2790.6106,9.888160232573227
2791.7935,22.659618739705365
2792.9757,30.790271137212358
2794.1573,36.98152781761223
2795.3382,47.18479886552154
2796.5184,69.70149399574211
2797.698,80.58302245122809
2798.8769,82.6807927779198
2800.0551,103.14621271592728
2801.2327,122.7806891785533
2802.4096,136.73562804763878
2803.5859,153.11243397721773
2804.7615,172.36251025396655
2805.9364,188.23725863343725
2807.1106,221.13807914755694
2808.2842,250.81636994587961
2809.4572,282.2235269665798
2810.6294,319.3609436396696
2811.801,358.2800105729234
2812.972,392.83211518050825
2814.1423,438.8186412937914
2815.3119,487.690968815818
2816.4808,540.3004732614459
2817.6491,581.1985252686247
2818.8167,612.2864900722998
2819.9837,674.1657270954292
2821.15,711.2375896381079
2822.3157,757.853424258775
2823.4807,808.7145704034931
2824.645,864.7223599397921
2825.8086,890.7781166480545
2826.9716,915.9831556614411
2828.134,969.9387832053308
2829.2957,980.5962963452721
2830.4567,1014.8569824474255
2831.617,1031.922119071991
2832.7767,1029.0929736305984
2833.9358,1034.970803215657
2835.0941,1036.8068546286477
2836.2519,1018.8523643213418
2837.4089,1012.4085583774429
2838.5653,988.1766526921313
2839.7211,991.757853036501
2840.8761,1006.7533552998818
2842.0306,1024.7643454540237
2843.1843,1069.8419994031447
2844.3374,1131.337482803819
2845.4899,1186.2519506142032
2846.6417,1255.4865464790787
2847.7928,1333.7924021807085
2848.9433,1405.5206369464922
2850.0931,1493.9723566659052
2851.2422,1553.048653173218
2852.3907,1645.400603362977
2853.5385,1703.979268599243
2854.6857,1763.2856937920717
2855.8323,1801.8709068117264
2856.9781,1844.9359178956156
2858.1233,1885.6817192624376
2859.2679,1955.6592846815324
2860.4118,1984.2695690654248
2861.555,2026.8135077700458
2862.6976,2061.7420163086335
2863.8395,2087.3059899262917
2864.9808,2105.0563032507034
2866.1214,2118.6438100364944
2867.2614,2146.3193429877274
2868.4007,2142.983713622026
2869.5393,2148.8877119938224
2870.6773,2155.7321067277144
2871.8146,2186.417644959422
2872.9513,2176.495052267344
2874.0874,2162.365032365704
2875.2227,2171.378267203777
2876.3574,2148.535417107187
2877.4915,2112.787120687776
2878.6249,2091.883995072033
2879.7577,2064.8766362585766
2880.8898,2054.215619327184
2882.0212,2029.9514987088662
2883.152,2014.4848082924818
2884.2821,2005.2160616673725
2885.4116,1982.4957522780346
2886.5405,1992.6743535168027
2887.6686,1999.5523189510568
2888.7962,2007.980082221432
2889.923,2020.9080569730427
2891.0493,2030.286636771201
2892.1748,2037.866194972142
2893.2997,2042.0970846292314
2894.424,2060.729638417176
2895.5476,2082.014168589711
2896.6706,2107.450966793277
2897.7929,2135.140303854173
2898.9145,2162.7324295241883
2900.0355,2202.927572203711
2901.1559,2211.3259386658037
2902.2756,2260.3777136542544
2903.3946,2284.933059799592
2904.513,2323.392117128568
2905.6308,2356.305002818605
2906.7479,2365.821810813205
2907.8643,2403.3426114928197
2908.9801,2416.567451579683
2910.0953,2422.196353762605
2911.2098,2417.629316564722
2912.3236,2395.0663142872054
2913.4368,2404.5572970549356
2914.5494,2374.252191042131
2915.6613,2354.3508983774354
2916.7725,2334.6032974469736
2917.8831,2293.709243093359
2918.9931,2257.1185668131757
2920.1024,2237.3310771659144
2921.211,2227.5965601398807
2922.319,2193.3647793500713
2923.4264,2177.1854761355175
2924.5331,2167.3583699016035
2925.6391,2156.4831582818597
2926.7445,2149.859517236234
2927.8493,2152.037101159841
2928.9534,2124.565542949205
2930.0569,2130.994453980477
2931.1597,2130.7734243841546
2932.2619,2108.7520229807924
2933.3634,2097.42979728321
2934.4643,2104.5062737167073
2935.5645,2069.9309577322883
2936.6641,2043.9533337358937
2937.763,2003.7228654341543
2938.8613,1971.28899609417
2939.959,1905.8511489458126
2941.056,1824.1087275060652
2942.1523,1739.6611162334
2943.248,1655.007681345201
2944.3431,1558.8477716622435
2945.4375,1463.330719455225
2946.5313,1367.7058414063652
2947.6244,1267.7224395645762
2948.7169,1168.9298023017136
2949.8087,1065.577205312408
2950.8999,978.8639126019934
2951.9904,893.1891775200315
2953.0803,823.0522436274455
2954.1696,764.0023455532673
2955.2582,721.1387096960068
2956.3462,675.9605548141515
2957.4335,640.3670924548019
2958.5202,600.907527405454
2959.6062,584.7810580499327
2960.6916,558.8868767629876
2961.7764,548.4741700715588
2962.8605,539.1921189137174
2963.9439,518.4398987427936
2965.0267,509.06667962019696
2966.1089,514.9216264229389
2967.1905,519.3038989373636
2968.2714,512.4126518006003
2969.3516,511.84703445673995
2970.4312,518.4561912257468
2971.5102,529.1392613091164
2972.5885,524.9453787237819
2973.6662,532.2736721952842
2974.7432,530.523265199711
2975.8196,526.4932758904129
2976.8954,527.6328171155081
2977.9705,511.8409964581824
2979.045,510.1169162252936
2980.1188,488.20967360529085
2981.192,468.86836068545495
2982.2645,464.7920646709704
2983.3364,442.1798680783386
2984.4077,411.3808487761406
2985.4783,389.34408021115996
2986.5483,365.76863171637046
2987.6177,326.5035687313067
2988.6864,295.9979530378175
2989.7545,270.90084315271554
2990.8219,230.76129463283496
2991.8887,192.67836032600144
2992.9548,176.40109077242823
2994.0204,155.0285345855459
2995.0852,131.2097386147749
2996.1495,112.04374815925075
2997.2131,88.12960720601245
2998.276,71.01635862166165
2999.3383,47.253044391504886
3000.4,36.88870579068498
3001.4611,27.07238362181522
3002.5215,28.403118318621978
3003.5812,16.279950044107864
3004.6404,5.151918677244566
3005.6989,-2.931936065795753
3006.7567,-3.9225745203591487
3007.8139,-15.220927731751203
3008.8705,-2.0778875587583343
3009.9264,-16.894193803099256
3010.9818,-14.920565508396521
3012.0364,-6.057552945277621
3013.0905,-14.00555732792077
3014.1439,-3.0149193555511147
3015.1966,-3.6858398118753257
3016.2487,-0.21848936155652154
3017.3002,5.686998152281717
3018.3511,9.080491069224308
3019.4013,12.711857671986081
3020.4509,23.73096615247789
3021.4998,26.087684575492176
3022.5481,23.731880768512156
3023.5958,31.813422298145156
3024.6428,37.03217649367946
3025.6892,32.88801036626933
3026.735,47.93079055674798
3027.7802,58.11038337706884
3028.8247,52.77665465987786
3029.8685,70.37946965671767
3030.9118,79.41869309136575
3031.9544,72.44418898380547
3032.9963,100.00582055983284
3034.0376,94.8534503208025
3035.0783,109.68693976801137
3036.1184,114.55614945422201
3037.1578,122.41093883532847
3038.1966,131.95116622166324
3039.2348,124.72668869944982
3040.2723,131.2373620354008
3041.3092,140.78304074896187
3042.3455,143.16357804720485
3043.3811,133.3288257293716
3044.4161,141.02863416306798
3045.4505,139.5128523826121
3046.4842,139.8313280120359
3047.5173,132.6839072802435
3048.5498,135.57043501782573
3049.5816,131.29075472853503
3050.6128,125.34470856041946
3051.6434,115.83213734862022
3052.6734,118.10288067483077
3053.7027,123.75677696242417
3054.7314,114.19366345374476
3055.7594,115.6633761535694
3056.7868,107.96574992473847
3057.8136,113.15061847345919
3058.8398,113.31781442628085
3059.8653,105.11716927824727
3060.8902,95.94851339122363
3061.9145,99.01167607590412
3062.9381,102.65648568349764
3063.9612,99.13276957509675
3064.9835,97.44035408522973
3066.0053,94.02906455709683
3067.0264,93.24872535949555
3068.0469,91.94915992093274
3069.0668,79.73019073742842
3070.086,73.6416393855111
3071.1046,76.13332664440753
3072.1226,60.70507255692837
3073.1399,66.65669640455144
3074.1567,57.68801686170383
3075.1727,53.64885193624576
3076.1882,51.93901905915743
3077.203,34.20833512493101
3078.2173,27.706616508668446
3079.2308,29.533679243388917
3080.2438,26.589339085045253
3081.2561,20.973411494253583
3082.2678,9.235711665736915
3083.2789,14.676054584484348
3084.2893,12.094255143128237
3085.2991,3.190128087540529
3086.3083,3.213488042650681
3087.3169,2.564149601487486
3088.3248,3.941927324944743
3089.3321,4.046635748275094
3090.3388,-0.6219106326881274
3091.3449,-0.2638973625776089
3092.3503,-4.279503773138913
3093.3551,2.7310934402166254
3094.3593,-4.182239665679447
3095.3629,-7.4696370613064005
3096.3658,-5.381190936569396
3097.3681,1.28308114030051
3098.3698,-1.1267846408302944
3099.3708,-6.910752102926153
3100.3713,-2.468773812372717
3101.3711,-0.25073329714268766
3102.3702,-5.206489422158029
3103.3688,-0.08589854751551229
3104.3667,6.811234979517394
3105.364,2.085107669799868
3106.3607,3.2859159660784485
3107.3568,1.51385629024918
3108.3522,1.0691250313489604
3109.347,3.301918563276331
3110.3412,10.012433249238484
3111.3348,10.400865419423724
3112.3277,6.717411303896142
3113.32,12.962267028711494
3114.3117,12.085628652751495
3115.3028,13.08769210527538
3116.2932,11.968653194685999
3117.2831,16.37870759850938
3118.2723,11.118050874585379
3119.2608,12.236878416966704
3120.2488,21.935385508525655
3121.2361,18.61376730976565
3122.2229,22.67221876183669
3123.209,24.41093461975072
3124.1944,23.58010941179805
3125.1793,29.329937422159276
3126.1635,27.860612699214414
3127.1471,27.92232899804401
3128.1301,34.96527979512291
3129.1125,30.28965828770265
3130.0942,32.14565732338241
3131.0753,31.233469446864717
3132.0558,38.503286881395354
3133.0357,35.95530153788576
3134.015,36.08970494221438
3134.9936,36.506688260706966
3135.9716,35.50644229879242
3136.949,42.43915749683285
3137.9258,45.855023940126074
3138.902,43.804231289578325
3139.8775,45.28696874754587
3140.8524,45.603425078342866
3141.8267,45.453788593413805
3142.8004,50.18824714816904
3143.7735,48.65698814348127
3144.7459,53.01019847834078
3145.7178,56.34806456516807
3146.689,54.62077228628172
3147.6596,59.52850696051968
3148.6295,54.92145336051237
3149.5989,63.64979566360526
3150.5676,56.313717497929446
3151.5357,54.06340185511834
3152.5032,62.04903116366799
3153.4701,63.070787311440625
3154.4364,64.77885156580831
3155.402,63.02340456343518
3156.367,70.95462629319715
3157.3315,68.12269611373614
3158.2952,67.27779267414775
3159.2584,71.97009394230082
3160.221,71.04977721328638
3161.1829,67.16701906249449
3162.1442,73.27199535481753
3163.105,75.26488128347788
3164.065,74.24585130897808
3165.0245,77.36507913917174
3165.9834,73.77273773945416
3166.9416,77.16899930156976
3167.8993,82.90403527953555
3168.8563,80.02801635567872
3169.8127,82.99111238328612
3170.7684,81.84349241536464
3171.7236,85.98532467500999
3172.6782,85.31677656688322
3173.6321,87.08801463579215
3174.5854,85.24920457337683
3175.5381,87.50051120039737
3176.4902,94.1920984851219
3177.4417,91.92412952081347
3178.3926,94.84676645881422
3179.3428,89.61017053122504
3180.2924,97.61450202167916
3181.2415,98.9599203177082
3182.1899,97.59658383069882
3183.1377,99.52464998243843
3184.0848,96.99427521874875
3185.0314,98.45561499020504
3185.9773,108.3088237774398
3186.9227,106.85405507652958
3187.8674,104.99146130046262
3188.8115,111.4211937936868
3189.755,110.9434028507353
3190.6979,109.45823765192941
3191.6402,111.1658462681564
3192.5818,110.36637567572123
3193.5229,112.7599717392704
3194.4633,114.39677921978671
3195.4031,117.22694175065327
3196.3423,120.05060182128545
3197.2809,120.1179007488293
3198.2189,124.22897864992487
3199.1563,120.13397444003331
3200.0931,124.4830257923261
3201.0292,128.12626917863497
3201.9648,129.01383982596144
3202.8997,129.19587168004432
3203.834,132.92249739648415
3204.7677,130.49384833892265
3205.7008,126.61005454177673
3206.6333,129.32124473452478
3207.5652,134.9775463805447
3208.4964,135.67908565000198
3209.4271,139.12598736328658
3210.3571,141.6683749839977
3211.2865,135.40637058447464
3212.2154,139.64009482037304
3213.1436,138.51966699328474
3214.0712,143.99520500840075
3214.9982,142.46682538571537
3215.9246,144.7346432052708
3216.8503,147.74877212244112
3217.7755,149.40932434525388
3218.7001,151.01641060424902
3219.624,150.02014013587325
3220.5473,156.0206206664091
3221.4701,153.16795842193778
3222.3922,160.56225806833433
3223.3137,153.20362273979416
3224.2346,154.7421539648901
3225.1549,163.77795174015867
3226.0746,165.21111451471504
3226.9937,157.64173909989466
3227.9121,161.46992065492194
3228.83,161.79575276260385
3229.7473,162.21932739104827
3230.6639,167.29073489040536
3231.5799,165.1100639886322
3232.4954,168.12740174077842
3233.4102,169.79283355079298
3234.3244,170.50644314135084
3235.238,172.26831253719868
3236.151,171.82852205801868
3237.0634,174.83715030080987
3237.9752,180.8942741442861
3238.8864,179.69996871878973
3239.797,181.9543073457204
3240.7069,187.90736154947788
3241.6163,183.859201034919
3242.5251,187.75989362782693
3243.4332,184.05950531539276
3244.3408,181.30810020720872
3245.2477,183.35574057227194
3246.154,186.20248686649853
3247.0598,189.9483977122472
3247.9649,192.89352986985182
3248.8694,197.48793820016215
3249.7733,198.63167563509273
3250.6766,190.62479313167867
3251.5793,198.11733966063832
3252.4814,197.909362286442
3253.3829,195.30090609238658
3254.2838,197.4420141826755
3255.1841,200.7327277085028
3256.0838,200.7230858466426
3256.9829,198.8631257665415
3257.8814,205.10288263041537
3258.7792,202.09238961184877
3259.6765,207.48167783339744
3260.5731,204.320776396693
3261.4692,207.35971232855047
3262.3647,207.74851061257695
3263.2595,204.0871941587824
3264.1538,207.02578379969162
3265.0474,210.41429832695746
3265.9404,208.5527544619749
3266.8329,208.34116682199584
3267.7247,208.82954793874458
3268.616,211.36790826053368
3269.5066,212.45625614738015
3270.3966,205.4945978456219
3271.286,206.68293747703433
