RamanShift,CorrectedData
30.1047,6824.006908837934
32.3739,6380.594706593105
34.6426,5939.7324361082065
36.9109,5496.369965337221
39.1787,5058.90710283681
41.4461,4619.293602199927
43.7131,4183.529166430458
45.9796,3742.0634523393496
48.2456,3301.2460749022525
50.5112,2873.52661167418
52.7764,2434.4046071976845
55.0411,2000.8795772800509
57.3054,1571.1010133845155
59.5692,1147.26838696552
61.8326,716.1311537664947
64.0955,293.38875805818566
66.3579,-127.90936304997217
68.6199,-534.6637753824316
70.8815,-907.8237669491089
73.1426,-1178.9332844688042
75.4032,-1174.0272055008872
77.6634,-459.3786300612187
79.9231,1989.2510703661237
82.1824,8156.405113489577
84.4412,21936.376697125062
86.6995,45414.408937524466
88.9574,55454.144731575885
91.2148,57391.47652202335
93.4717,57402.546197069445
95.7282,57098.445071001974
97.9842,56685.86388408328
100.2398,56220.74280559129
102.4949,55758.07143794525
104.7495,55277.83882135702
107.0036,54768.883438457735
109.2573,54348.593219100156
111.5105,53839.40554544819
113.7632,53370.35725617985
116.0154,52925.284651579095
118.2672,52546.07349822629
120.5185,52059.95903344897
122.7693,51621.37596911397
125.0197,51096.858496488494
127.2696,50773.590290625994
129.519,50292.70451561136
131.7679,49878.683827793575
134.0163,49315.26038059457
136.2642,48923.31582864947
138.5117,48534.5313334408
140.7587,48058.23756721792
143.0052,47603.51471688487
145.2512,47090.69248876336
147.4967,46727.6001131399
149.7417,46280.16634939413
151.9863,45808.419489629676
154.2304,45341.73736314848
156.4739,44916.84734116835
158.717,44560.32634148968
160.9596,44073.950832744405
163.2017,43579.2468379612
165.4433,43212.38993942923
167.6844,42734.15528364522
169.925,42333.81758498198
172.1651,41829.4011304708
174.4047,41457.77978380474
176.6439,41003.87699038292
178.8825,40512.91578102663
181.1206,40229.06877651839
183.3582,39774.35819251157
185.5954,39337.25584236885
187.832,38916.48314170936
190.0681,38425.71111277967
192.3037,38121.110388661524
194.5388,37803.95121817963
196.7734,37141.75346894754
199.0075,37008.036630539355
201.2411,36506.669821111616
203.4742,36220.07178874055
205.7068,35803.81091643568
207.9389,35418.75522500583
210.1704,35017.22237722174
212.4015,34679.42968166659
214.632,34243.2440967514
216.862,33907.18223409283
219.0915,33492.310362875185
221.3205,33129.89441321093
223.549,32789.94998028943
225.777,32415.592328001094
228.0044,32053.58639233687
230.2314,31678.646785131798
232.4578,31300.08779768505
234.6837,30939.173404509365
236.909,30580.31726711661
239.1339,30169.032737626956
241.3582,29830.132862357423
243.582,29430.28038593471
245.8053,29088.387754684212
248.0281,28727.367120628485
250.2503,28378.48034490623
252.472,27999.039001382494
254.6932,27657.954380137548
256.9139,27303.88749126126
259.134,26951.79906826401
261.3536,26597.549571617266
263.5727,26270.999192274583
265.7912,25924.207855213972
268.0092,25602.385222703517
270.2267,25255.790697769233
272.4436,24917.68342741327
274.6601,24585.172306079905
276.8759,24254.91597903658
279.0913,23923.122845699043
281.3061,23600.601062933893
283.5204,23268.758548376514
285.7341,22944.4029836563
287.9473,22622.34181771509
290.16,22304.132270050693
292.3721,21997.881333937534
294.5837,21677.945779608715
296.7947,21373.73215731859
299.0052,21068.246800542067
301.2152,20754.645829016772
303.4246,20467.385151797884
305.6334,20153.370470394148
307.8418,19828.107281640507
310.0495,19526.350880838247
312.2568,19219.45636500761
314.4635,18917.328635905345
316.6696,18641.92240309366
318.8752,18329.842186961498
321.0802,18019.542321478577
323.2847,17745.026957316244
325.4887,17469.30006495044
327.692,17176.11543740688
329.8949,16905.726693018252
332.0972,16633.787278356154
334.2989,16360.350470934893
336.5001,16093.51938193095
338.7007,15759.49695891729
340.9008,15537.83598853169
343.1003,15273.639099817025
345.2992,15024.958766437805
347.4976,14738.497309322214
349.6955,14497.956899148841
351.8927,14216.589559211374
354.0895,13977.8471678239
356.2856,13744.231461134696
358.4812,13501.094035513568
360.6763,13182.83634988805
362.8707,13025.059728174761
365.0646,12752.365362461991
367.258,12534.45431458742
369.4508,12240.777518865143
371.643,12068.935784264708
373.8346,11804.52979734791
376.0257,11590.8601239872
378.2162,11352.427212009745
380.4062,11060.98139333415
382.5956,10902.122886354751
384.7844,10678.501798856138
386.9726,10486.168129601676
389.1603,10250.071770569732
391.3474,9947.56250887709
393.5339,9810.5900291398
395.7199,9522.35391649836
397.9052,9342.953657987346
400.09,9174.538645417844
402.2743,9048.15817717139
404.4579,8742.461459884202
406.641,8584.847609710923
408.8235,8415.665655381628
411.0054,8258.664539777987
413.1868,8086.6931216250305
415.3675,7859.350177061213
417.5477,7697.5344013580325
419.7273,7524.694411193566
421.9064,7339.728746270557
424.0848,7173.785871044849
426.2627,7022.464176574969
428.4399,6770.761982181641
430.6166,6467.977536960905
432.7928,6420.209022301242
434.9683,6145.504554911386
437.1432,5957.7121872979915
439.3176,5912.379910512733
441.4914,5599.405656030191
443.6645,5470.087296201178
445.8371,5338.722647382492
448.0091,5124.459471230075
450.1806,4915.245476012729
452.3514,4806.3783187547015
454.5216,4569.305607327806
456.6913,4534.074901540087
458.8603,4435.783715506579
461.0288,4166.129518001559
463.1967,4143.90973344152
465.3639,3998.6717445816394
467.5306,3665.4628927380545
469.6967,3667.1804792401817
471.8622,3634.471768762829
474.0271,3437.583989309038
476.1914,3323.2643325371464
478.3551,3211.609955729713
480.5182,3229.317982936678
482.6807,2971.385506091894
484.8426,2899.4095848360957
487.0039,2927.787249096189
489.1647,2806.5654998049868
491.3248,2555.1913086174536
493.4843,2647.8116191229346
495.6432,2548.0733493588923
497.8015,2269.4733908847265
499.9592,2263.4586097791034
502.1163,2154.425849425992
504.2728,2045.9219305748193
506.4287,1955.3436524307108
508.5839,1778.0377937396188
510.7386,1747.2011136940637
512.8927,1663.03035370617
515.0461,1550.2722377160972
517.199,1555.2234730337295
519.3512,1407.3807514663204
521.5029,1356.3407492689003
523.6539,1325.9501286227678
525.8043,1138.4555381457903
527.9541,1167.0536131963963
530.1033,1086.8409777484922
532.2519,982.0142441054777
534.3999,996.370013702377
536.5472,1004.3548781541103
538.694,808.6154191119058
540.8401,841.748208183526
542.9856,800.999808890585
545.1305,818.6667763372607
547.2748,652.6956576177108
549.4185,599.6829916394636
551.5615,654.0687968803686
553.704,594.3371009851398
555.8458,488.1219250578288
557.987,489.8572842591675
560.1276,503.32231741177384
562.2675,422.741269664024
564.4069,439.28838113108213
566.5456,499.88366874282656
568.6837,375.3427609382052
570.8212,386.18128115734726
572.958,159.61110316615668
575.0942,259.594096868801
577.2299,138.29053765447316
579.3648,117.25810756730789
581.4992,64.70310712896026
583.6329,46.230665452603716
585.766,55.145265267310606
587.8985,99.90092745780566
590.0304,-120.49887799243152
592.1616,32.148320889762545
594.2922,-56.30380013870308
596.4222,-178.05188648265903
598.5515,-144.29202107204765
600.6802,-62.518508098517486
602.8083,-211.57421027647797
604.9358,-205.40136576043733
607.0626,-125.89009907864238
609.1888,-332.02848279966565
611.3144,-141.00333185010095
613.4393,-208.14814419198956
615.5636,-298.4950091641658
617.6873,-157.12393670556776
619.8103,-303.7619547900031
621.9327,-134.48452172320685
624.0544,-132.46406122902408
626.1756,-183.02165353095916
628.2961,-190.97705553656124
630.4159,-226.3981957670767
632.5351,-253.40109488301823
634.6537,21.450488173031772
636.7716,-258.3546740646343
638.8889,-159.97780927624262
641.0056,-154.6275641788161
643.1216,-93.21098731110396
645.237,-12.335125665558735
647.3518,-134.95702530247945
649.4659,-77.8837321587489
651.5793,-39.47229082162812
653.6922,51.32025490041269
655.8043,-175.663138406293
657.9159,160.82048533138004
660.0268,-383.6859160567692
662.137,18.110613650853338
664.2466,99.40686369811738
666.3556,10.399623147801321
668.4639,141.43568006868009
670.5716,10.411822425558057
672.6786,183.2248367688735
674.785,20.42150954502722
676.8907,81.39862536815053
678.9958,220.2529686482303
681.1002,278.2813229812964
683.204,112.3804697608648
685.3072,20.547187597709126
687.4097,155.92825397878914
689.5115,111.17044618565706
691.6127,391.1205399405808
693.7132,212.375309854222
695.8131,254.03152662599314
697.9123,393.53595883164235
700.0109,477.98537250659865
702.1089,246.52652975096134
704.2061,364.5561878849985
706.3028,471.37110176376154
708.3987,547.668022596743
710.4941,450.2436968797556
712.5887,684.3448656319379
714.6827,600.3682653700671
716.7761,839.9606257674386
718.8688,941.1186704937136
720.9608,793.3391148189767
723.0522,896.2186646021582
725.1429,776.9040177688439
727.233,1291.0918632824614
729.3224,648.4288823373863
731.4112,952.0117432171537
733.4993,994.3871077210351
735.5867,1031.1016281282355
737.6735,899.0019467741658
739.7596,794.4846956831971
741.845,828.0964978897828
743.9298,1140.683968483514
746.014,950.1437142730647
748.0974,829.7723306602784
750.1802,1228.6664035455979
752.2624,828.9725105317557
754.3439,981.9872169348746
756.4247,1152.2570797813532
758.5048,1014.528646277744
760.5843,1178.4984521080623
762.6631,1392.46302281104
764.7413,1403.8188721404586
766.8188,1603.3624999254462
768.8956,1852.9403919569959
770.9718,1932.2490179924862
773.0473,1900.4348292599534
775.1221,1720.0942576649395
777.1962,1786.523716108648
779.2697,1558.2196002914206
781.3426,1817.0282880483355
783.4147,1955.4961416322694
785.4862,1942.6195051258837
787.557,1766.994703056902
789.6271,2048.0180405269057
791.6966,1817.9858049675458
793.7654,1426.144263330345
795.8335,1431.9396643870568
797.901,1541.318242648027
799.9678,1403.876218304249
802.0339,1423.5597961335516
804.0993,1484.2651668750332
806.1641,1441.1885070322242
808.2282,1434.4259782660374
810.2916,1386.4237278255605
812.3544,1707.9278886156171
814.4164,1300.0345796768233
816.4778,1505.0399029705586
818.5385,1586.7899474578735
820.5986,1674.680787049474
822.658,1838.8584797881776
824.7166,2042.0690669700198
826.7747,1849.4085715024994
828.832,2246.5229958724303
830.8886,2595.258324072536
832.9446,2705.3105176303725
834.9999,2120.9255121208917
837.0545,2448.3992160660127
839.1085,2593.3775167784333
841.1618,2423.6062770868884
843.2143,1994.4313338863576
845.2662,2046.8484998357671
847.3175,2285.2035676498053
849.368,1780.1923095747115
851.4179,2326.7604750046958
853.467,1979.5037955321022
855.5155,2238.2179794816693
857.5633,1970.4487153831578
859.6105,1838.491669384166
861.6569,2198.1424879278566
863.7027,1800.1967990725025
865.7478,2029.1502088949564
867.7922,1996.79830547014
869.8359,2299.036656581513
871.8789,1919.4108100445883
873.9212,2261.716290684497
875.9629,2342.448604132296
878.0039,2435.253233401905
880.0441,2377.1256380827544
882.0837,2480.5612534118263
884.1226,2567.1054908548467
886.1609,2661.8537370720223
888.1984,2593.301353052506
890.2352,3062.6936731669775
892.2714,2675.7260058530956
894.3069,2955.9436289216246
896.3416,2763.7917934260986
898.3757,2768.0657208606353
900.4091,2337.2106050814255
902.4418,3061.4216122640646
904.4739,2734.393885212048
906.5052,2930.97253611467
908.5358,2778.052649817306
910.5658,2660.3292818556147
912.595,2735.797459984773
914.6236,2241.7021853567203
916.6515,3024.388431765401
918.6786,2282.151150587815
920.7051,2548.7352629570523
922.7309,2558.6856671847345
924.756,2726.6972360952204
926.7804,2617.96481692604
928.8041,2128.0332296477427
930.8272,2628.897268051296
932.8495,2748.851704647328
934.8711,2384.8912856575334
936.892,2255.210729815124
938.9123,2535.2547320044687
940.9318,2332.417964557848
942.9506,2367.1950744549904
944.9688,2525.9806853514965
946.9862,1860.669397230995
949.003,2123.755784817331
951.019,1532.684404227679
953.0344,1694.0497903416835
955.0491,1719.8964627121823
957.063,2011.768923951502
959.0763,2192.31165947306
961.0888,1903.1191345725383
963.1007,2331.2857926225697
965.1119,2390.706057964613
967.1223,2170.0243316273045
969.1321,2574.8849907322365
971.1412,2178.4323907007856
973.1495,1994.1608612055352
975.1572,2209.164710134748
977.1641,2191.588225435131
979.1704,2165.1256729617307
981.1759,2202.3712966537496
983.1808,2060.369318799181
985.1849,2125.6639396622777
987.1884,2295.3993389036186
989.1911,2624.7196749272043
991.1932,2058.069083183036
993.1945,2274.241672873948
995.1951,2444.28153262211
997.1951,2216.3327283073304
999.1943,2112.7893013666544
1001.1928,2078.5952710738056
1003.1906,2139.194635574677
1005.1877,1893.3313722292223
1007.1841,1886.9994370054555
1009.1798,1942.4927669381213
1011.1748,1903.7552801919737
1013.1691,1775.4808755068516
1015.1627,1128.7634325851031
1017.1556,1103.4968133742732
1019.1477,1246.6748685343046
1021.1392,837.3414376902292
1023.1299,564.9903480003268
1025.12,773.3654182495084
1027.1093,602.7104615727512
1029.0979,694.1192833714231
1031.0859,707.0856830198245
1033.0731,471.45345295102743
1035.0596,583.0163785272671
1037.0454,461.5182403962608
1039.0304,308.35281337557535
1041.0148,-41.63613233240903
1042.9985,78.24517039116472
1044.9814,238.8404890815509
1046.9636,-84.70640950843517
1048.9452,-122.05176101435063
1050.926,-22.450954854757583
1052.9061,-34.75816115112684
1054.8855,-31.67754980036989
1056.8642,-6.66329035184026
1058.8421,51.23044796193426
1060.8194,101.09949597508239
1062.7959,91.3396840093992
1064.7717,218.09684137572913
1066.7469,230.26679647152196
1068.7213,286.2453755132956
1070.695,342.82840241491795
1072.6679,191.91169822781376
1074.6402,350.1410805751366
1076.6117,383.1623651609407
1078.5826,337.42136418790324
1080.5527,219.56388602711377
1082.5221,163.13573567544518
1084.4908,202.0327159341905
1086.4587,254.95062797329592
1088.426,345.23527094240126
1090.3925,253.8824414416522
1092.3584,338.9879326188675
1094.3235,151.59753508308495
1096.2879,174.4570360534999
1098.2515,281.41222123333137
1100.2145,411.40887458126963
1102.1767,547.8427772419018
1104.1382,736.0597062457309
1106.099,896.7554331448991
1108.0591,1080.425722130938
1110.0185,1137.566328427849
1111.9771,1350.5229964553728
1113.9351,1119.5414592576126
1115.8923,976.1174363734608
1117.8488,839.5466361464278
1119.8045,530.224757158845
1121.7596,516.4974895975902
1123.7139,369.8605183473119
1125.6675,398.50952312773006
1127.6204,604.9401799599436
1129.5726,433.5981608800066
1131.524,420.6791318745818
1133.4748,409.1287545943633
1135.4248,250.09268648331636
1137.3741,226.11658089411503
1139.3226,119.84608867850329
1141.2705,199.3768584271238
1143.2176,-9.645462467873585
1145.164,9.824771391904505
1147.1097,-12.61669823700504
1149.0546,-57.374129696290765
1150.9989,-17.10165528691141
1152.9424,-43.55283414221776
1154.8852,-136.73105455011682
1156.8272,-112.83926970572793
1158.7686,-41.67906686088827
1160.7092,-48.400906003160344
1162.6491,-155.0548307462377
1164.5883,33.10959882131283
1166.5267,49.444371608653455
1168.4644,291.05147619392665
1170.4014,434.1829006609332
1172.3377,757.4906301829396
1174.2732,931.7766455914025
1176.2081,1295.2929201428997
1178.1421,1647.6414177762417
1180.0755,2064.4240894773393
1182.0082,2164.392869755735
1183.9401,2385.999672476726
1185.8713,2270.946389861703
1187.8017,2090.7348902720987
1189.7315,1841.2170193598868
1191.6605,1421.7446018696937
1193.5888,1111.769444134021
1195.5163,1042.193338267898
1197.4432,916.8180652687006
1199.3693,864.695395711853
1201.2947,821.5770910046631
1203.2193,814.4149039074691
1205.1432,836.8105789648689
1207.0664,815.6158525773426
1208.9889,819.7824527772391
1210.9106,747.7620994408135
1212.8316,693.6065042464761
1214.7519,747.5673713950455
1216.6715,723.2463981512847
1218.5903,844.7952743043061
1220.5084,873.2656824107835
1222.4257,1027.709296579429
1224.3424,942.2777821863128
1226.2583,1066.1727943303995
1228.1735,1139.7959786879146
1230.0879,1198.8489702733787
1232.0016,1330.9333927033658
1233.9146,1343.8008576059583
1235.8269,1369.4029632999082
1237.7384,1375.041294665978
1239.6492,1171.7174228909644
1241.5592,1221.5329054112444
1243.4686,1191.63928794604
1245.3772,1308.33810399926
1247.285,1405.2808751584162
1249.1922,1502.6691099276577
1251.0986,1640.6043027583291
1253.0042,1594.6879330751326
1254.9092,1734.721463896698
1256.8134,1818.406342294802
1258.7169,2007.5939979940158
1260.6196,2020.835842534827
1262.5216,2311.3832673818397
1264.4229,2487.887643791284
1266.3234,2650.600319905585
1268.2232,2840.222618988286
1270.1223,2818.3058377969865
1272.0207,2852.701244687065
1273.9183,2846.9100798308427
1275.8151,2772.533554873662
1277.7113,2831.1228529917717
1279.6067,2805.3791296361014
1281.5014,2895.353511946363
1283.3953,3184.9970990084985
1285.2885,3574.160960954934
1287.181,3931.7961360681365
1289.0727,4307.403626888983
1290.9637,4569.284396640382
1292.854,4809.839365471267
1294.7435,4778.9194078377295
1296.6323,4779.725350097477
1298.5204,4767.407970819044
1300.4077,4718.668000773712
1302.2943,4570.356123058707
1304.1802,4482.072973584571
1306.0653,4136.71914255833
1307.9497,3817.3451753662484
1309.8333,3587.5515760274357
1311.7162,3415.138810387558
1313.5984,3379.4573084167714
1315.4798,3287.957465933854
1317.3605,3265.9896449630432
1319.2405,3251.204174648985
1321.1197,3158.6013514764854
1322.9982,2891.331439418296
1324.876,2813.3946708611984
1326.753,2667.0412492786418
1328.6293,2533.9713500101716
1330.5048,2547.885121724903
1332.3796,2427.9826877522646
1334.2537,2412.1641459428793
1336.127,2346.3795698675312
1337.9996,2325.529008975358
1339.8714,2356.0624892517517
1341.7426,2335.980013426808
1343.6129,2428.8815606700227
1345.4826,2316.0670867911103
1347.3515,2434.9865233109485
1349.2196,2434.1897785897927
1351.087,2520.6767366380263
1352.9537,2541.3472571241655
1354.8197,2709.0011745099764
1356.6849,2907.8382978437476
1358.5493,3002.2084090837816
1360.4131,3172.8612611099743
1362.276,3237.3965767801856
1364.1383,3255.364047223644
1365.9998,3143.3633311956582
1367.8606,2846.2940548978877
1369.7206,2579.0058130984035
1371.5799,2365.6981721023585
1373.4384,2173.97067242485
1375.2962,1990.772830924012
1377.1533,1714.7041427182885
1379.0096,1386.4140830184115
1380.8652,1185.6021098880956
1382.7201,981.367667526938
1384.5742,682.2101882785355
1386.4275,584.5290946728383
1388.2802,420.8238024176935
1390.132,298.09372137565515
1391.9832,313.38825720106615
1393.8336,187.3568125673337
1395.6832,144.4987870139994
1397.5322,84.4135782070698
1399.3803,101.15058236757613
1401.2278,-37.84080512759101
1403.0745,-2.661189913033013
1404.9204,-37.81079959373892
1406.7656,-34.53983518941823
1408.6101,-3.1981199899018975
1410.4538,-41.28513223209666
1412.2968,0.5996817963095964
1414.139,10.157288246096869
1415.9805,114.78864727720793
1417.8213,165.34471894802118
1419.6613,248.0264621690476
1421.5006,363.23483419735567
1423.3391,551.1207898097782
1425.1769,775.1352801507892
1427.0139,1143.8792508536644
1428.8502,1617.2036398003438
1430.6858,2002.659373433984
1432.5206,2346.497362025715
1434.3547,2534.9684958201105
1436.188,2656.4736415967964
1438.0206,2636.1136407857375
1439.8524,2445.139308252168
1441.6835,2397.4014325002026
1443.5139,2278.1007775825674
1445.3435,2225.688083578025
1447.1724,2279.1140677843396
1449.0005,2267.3794252423904
1450.8279,2220.8848282019208
1452.6545,2270.080926238894
1454.4804,2365.8183467204435
1456.3056,2369.6976943129157
1458.13,2318.019550024477
1459.9536,2241.234471166328
1461.7766,2045.3429918694892
1463.5987,1809.6956238526436
1465.4202,1568.0928583810637
1467.2409,1277.285168623086
1469.0608,1124.3730120661166
1470.88,882.7568334247262
1472.6984,716.8370661697736
1474.5161,546.7641349445439
1476.3331,443.7884572239818
1478.1493,423.9104450154191
1479.9648,361.18050588828555
1481.7795,388.399043172918
1483.5935,365.61645658787165
1485.4067,315.63314196771535
1487.2192,324.79949149085587
1489.031,343.5158941793816
1490.842,356.28273580738824
1492.6522,360.85039871383924
1494.4618,331.46926167484344
1496.2705,394.8896998580494
1498.0785,353.41208511639707
1499.8858,319.33678535395666
1501.6924,335.21416494069854
1503.4981,352.2945850532087
1505.3032,337.12840351596606
1507.1075,314.1159746304911
1508.911,320.7076493270288
1510.7138,327.30377539465917
1512.5159,271.60469741540874
1514.3172,268.71075669827405
1516.1178,203.97229183621675
1517.9176,199.18963873509347
1519.7166,207.71313126103632
1521.515,232.34310128831203
1523.3126,192.12987861405782
1525.1094,231.72379071198156
1526.9055,231.02516313453089
1528.7008,150.93431911692824
1530.4954,94.60157958413402
1532.2893,120.87726395178834
1534.0824,37.26169068953823
1535.8747,157.5051770582577
1537.6663,115.65803994622547
1539.4572,120.42059466666615
1541.2473,129.09315537623115
1543.0367,116.97603502738639
1544.8253,99.21954528168499
1546.6132,168.0739966309302
1548.4003,132.63969857476332
1550.1867,251.9669589320947
1551.9723,294.1060841954495
1553.7572,388.70737833772
1555.5414,420.82114239071234
1557.3247,563.6476734991993
1559.1074,665.7872645997304
1560.8893,778.0402029923862
1562.6705,872.906769319372
1564.4509,1020.9872364425028
1566.2305,1067.5818684945407
1568.0094,1193.0409193983833
1569.7876,1230.4146324011126
1571.565,1250.7532388194086
1573.3417,1281.0569576658163
1575.1176,1248.0259954453504
1576.8928,1233.9605458524711
1578.6672,1274.6107901013856
1580.4409,1248.7268970667028
1582.2138,1244.809022876947
1583.986,1286.957311173377
1585.7575,1373.9718931491698
1587.5282,1413.2028871279326
1589.2981,1501.600397693568
1591.0673,1483.9645152979429
1592.8358,1577.2453153769238
1594.6035,1678.8928585267313
1596.3704,1731.0071895711662
1598.1366,1767.638336545093
1599.9021,1864.6863101733288
1601.6668,1914.1011035043084
1603.4308,1998.5326909396135
1605.194,2148.5810277398305
1606.9564,2304.6960491802274
1608.7182,2520.277669050276
1610.4791,2754.87577809249
1612.2394,2958.890241846613
1613.9988,3203.9208983036515
1615.7576,3450.6175558657087
1617.5156,3672.9299908956928
1619.2728,3850.4079452503283
1621.0293,3873.351124057048
1622.785,3767.959193939201
1624.54,3482.031782786631
1626.2942,3277.518480809613
1628.0477,2910.8188433980904
1629.8005,2687.982393166825
1631.5525,2484.608623622411
1633.3037,2284.1470013916187
1635.0542,2165.446968255157
1636.804,1999.3579431522667
1638.553,1936.6293233677388
1640.3013,1892.3104861927932
1642.0488,1833.0507895523806
1643.7955,1930.8995724483539
1645.5416,1993.956155552074
1647.2868,2081.3198402259077
1649.0313,2146.989907892672
1650.7751,2290.715619162005
1652.5181,2425.6962131736254
1654.2604,2508.2309061601263
1656.0019,2731.3188900971327
1657.7427,2956.8593318779785
1659.4828,3184.4513710828287
1661.222,3344.894117723252
1662.9606,3351.1866499663265
1664.6984,3235.9280125301884
1666.4354,2980.767216621105
1668.1717,2505.4032410860746
1669.9072,2063.735034964433
1671.642,1705.8615222414846
1673.3761,1473.431606265207
1675.1094,1189.0441733249681
1676.8419,1003.5980949758195
1678.5737,859.492230882388
1680.3048,757.8254306733106
1682.0351,638.0965353823303
1683.7646,531.954378464925
1685.4934,502.6477869956252
1687.2215,465.7255827294357
1688.9488,365.0865823948661
1690.6754,300.1795980631905
1692.4012,335.8034381548314
1694.1263,295.00690808842774
1695.8506,237.8888099245887
1697.5742,277.4479427738552
1699.297,259.4831033679002
1701.0191,206.19308566392283
1702.7404,169.42668102430252
1704.461,95.2826787494887
1706.1808,74.45986644568256
1707.8999,116.70703076625796
1709.6182,109.82295762000649
1711.3358,80.05643174866418
1713.0527,64.15623679572309
1714.7688,56.521155604139494
1716.4841,12.349970375295015
1718.1987,50.2914627453938
1719.9126,37.494414227139714
1721.6257,40.30760583034498
1723.338,41.12981818987464
1725.0496,-30.490168462476504
1726.7605,1.2964256937902974
1728.4706,-15.011314924049657
1730.18,-62.66430591167955
1731.8886,-12.013312901750396
1733.5964,-22.35847551050756
1735.3036,-12.049813341207482
1737.0099,20.41287736405502
1738.7156,38.47992074080685
1740.4204,12.651640720470823
1742.1246,10.928360849684395
1743.8279,-3.8895954514318873
1745.5306,-22.401904872027444
1747.2325,-13.008205244219425
1748.9336,-19.80791060509182
1750.634,-5.500305039768136
1752.3336,42.01552524763247
1754.0325,40.390549001029285
1755.7307,4.475734544204897
1757.4281,54.52204979703674
1759.1247,66.93046263466567
1760.8206,67.90194038700974
1762.5158,104.73744971469205
1764.2102,69.43795659932948
1765.9039,59.20442597516376
1767.5968,67.78782208207849
1769.289,57.23910856791008
1770.9804,77.9092484026387
1772.6711,108.44920398386967
1774.361,113.95993693011587
1776.0502,124.2924077753778
1777.7386,158.14757591408488
1779.4263,141.0763994977351
1781.1132,169.22983509637015
1782.7994,171.2588378692617
1784.4849,188.21436128338064
1786.1696,184.447357093135
1787.8535,183.0087751707906
1789.5367,170.89956354413698
1791.2192,204.92066841089581
1792.9009,192.2230342597777
1794.5818,196.75760353030455
1796.2621,167.5253167397641
1797.9415,226.42711243787016
1799.6202,199.96392749909865
1801.2982,198.9366965336576
1802.9755,230.04635215213239
1804.6519,227.09382497574188
1806.3277,213.03004332525597
1808.0027,204.60593325050104
1809.6769,260.67241867101984
1811.3504,230.88042146030057
1813.0231,267.1308608851159
1814.6951,288.8746539034437
1816.3664,321.812714801963
1818.0369,317.99595497861264
1819.7067,309.67528261321604
1821.3757,306.5516027056274
1823.044,328.9758171589456
1824.7115,338.49882481075656
1826.3783,334.57152120889623
1828.0443,337.7947985162118
1829.7096,327.9195455498466
1831.3741,382.84664774900193
1833.0379,368.8769872736866
1834.701,342.5614424554624
1836.3633,379.1008879371184
1838.0248,379.19619493583923
1839.6856,397.7482308778035
1841.3457,420.05785939723864
1843.005,429.3759401508796
1844.6636,444.70332859489827
1846.3214,441.0908758917176
1847.9785,472.3894287567309
1849.6349,446.39982949442674
1851.2904,466.5229156854093
1852.9453,450.7595204462923
1854.5994,463.1604722284701
1856.2528,523.5765949757479
1857.9054,506.2587080003286
1859.5572,548.4076253786552
1861.2083,557.4241561245799
1862.8587,587.3591037679016
1864.5084,582.1632662641659
1866.1572,555.5374356953325
1867.8054,549.8823983217262
1869.4528,567.6489348483101
1871.0994,550.1378204812281
1872.7453,583.1998247501433
1874.3905,579.1857116833544
1876.0349,573.9462394771617
1877.6786,597.1321605360135
1879.3215,616.8442215249179
1880.9637,616.583163137555
1882.6051,644.0497198991743
1884.2458,632.1446201691924
1885.8858,609.5685858665456
1887.525,631.0223325887182
1889.1634,592.3065698375176
1890.8011,626.0220008045308
1892.4381,617.9693227582829
1894.0743,630.8492267070778
1895.7098,638.6123974795246
1897.3446,618.7095135957661
1898.9786,618.7912471898198
1900.6118,656.3082642086083
1902.2443,644.4612244111577
1903.8761,639.8007809934134
1905.5071,609.6775807067115
1907.1374,601.8922639043885
1908.7669,609.2954648430168
1910.3957,628.9378117602446
1912.0237,588.8199268007684
1913.651,602.2424258199171
1915.2776,635.9059187848161
1916.9034,581.3110096401742
1918.5285,596.7082959716408
1920.1528,531.7983695517578
1921.7764,563.3318161859825
1923.3992,547.2592163618137
1925.0213,499.4311449334291
1926.6427,487.9981712824192
1928.2633,501.0608597960709
1929.8832,554.7197699816843
1931.5023,482.7754563359558
1933.1207,497.8284678083892
1934.7383,497.7293485207356
1936.3552,475.4286376164746
1937.9714,500.2268692617854
1939.5868,454.87457286856807
1941.2015,425.22227284646397
1942.8154,404.17048905638876
1944.4286,418.4697371070288
1946.041,407.9705285653781
1947.6528,391.27337081372934
1949.2637,411.62876715467246
1950.8739,385.4372169780727
1952.4834,392.34921555750407
1954.0921,397.8652543121789
1955.7001,405.5358207378231
1957.3074,394.9613983515228
1958.9139,386.9424666150153
1960.5197,407.42950104043484
1962.1247,365.32297327049673
1963.729,317.3733508736259
1965.3325,348.08109776501624
1966.9353,346.09667468614134
1968.5374,335.2205388976636
1970.1387,320.6531441992847
1971.7393,323.54494103850084
1973.3392,300.046376656288
1974.9383,285.15789505816974
1976.5366,248.27993724921544
1978.1342,282.1629413829178
1979.7311,304.8573431299774
1981.3273,299.9635753394705
1982.9227,283.7320678119013
1984.5173,281.3632473481539
1986.1112,273.50753791178795
1987.7044,302.6153606527332
1989.2968,248.4371339858626
1990.8885,271.673273299888
1992.4795,292.02419149916386
1994.0697,284.39029877131543
1995.6592,226.92200238372607
1997.2479,242.56970675987395
1998.8359,261.7338140540287
2000.4232,253.36472399476406
2002.0097,269.06283369332596
2003.5955,228.57853772731505
2005.1805,254.9122279837211
2006.7648,243.81429406374627
2008.3484,252.0851230194785
2009.9312,268.9250994648628
2011.5133,255.73460549299853
2013.0946,254.7640205077405
2014.6752,256.9137213555932
2016.2551,265.1340823354367
2017.8342,217.77547517700987
2019.4126,251.03826895872044
2020.9902,204.22283058122594
2022.5672,230.07952443480463
2024.1433,240.55871286750335
2025.7188,225.7107559265787
2027.2935,233.98601125370078
2028.8674,209.78483423344733
2030.4406,217.80757791053657
2032.0131,194.55459323184004
2033.5849,211.9262289661674
2035.1559,208.4228319367794
2036.7261,235.3947468476763
2038.2957,233.7423163186395
2039.8645,232.26588061549592
2041.4325,259.81577766665396
2042.9998,191.39234307787592
2044.5664,219.24590985675604
2046.1323,199.72680909698101
2047.6974,214.88536969978122
2049.2617,221.02191856912214
2050.8254,211.08678046012392
2052.3883,230.6802779176869
2053.9504,239.452731375859
2055.5118,235.65445896187703
2057.0725,210.0357764084638
2058.6325,214.0469970917984
2060.1917,201.7384322877042
2061.7502,230.56039113154475
2063.3079,226.06318074130104
2064.8649,206.24710592934935
2066.4212,224.91246924744337
2067.9767,240.40957118487313
2069.5315,216.8387099818101
2071.0856,203.85018147432493
2072.6389,203.39427933010302
2074.1915,179.97129517833127
2075.7433,171.1315186142565
2077.2945,145.5252374334159
2078.8448,140.85273772003347
2080.3945,153.7643041030842
2081.9434,160.61021980301848
2083.4916,160.14076650265451
2085.039,161.25622427870985
2086.5857,145.85687160649832
2088.1317,171.34298534877598
2089.677,172.76484090973645
2091.2215,157.5227119801457
2092.7652,134.06687052311827
2094.3083,167.44758692654796
2095.8506,172.61513023765838
2097.3921,217.91976782920574
2098.933,173.5117653478028
2100.4731,179.29138626085842
2102.0124,193.20889230067132
2103.5511,194.6645434066313
2105.089,197.2585975860393
2106.6261,233.49131089955517
2108.1626,204.56293743525111
2109.6983,191.07372894629407
2111.2332,195.0739351402217
2112.7675,195.36380381383606
2114.301,190.1435808132037
2115.8337,224.8635100307647
2117.3657,179.47383345751587
2118.897,223.8747908358273
2120.4276,210.01662011332974
2121.9575,228.0495569989116
2123.4866,217.9238351012973
2125.0149,239.9396857487227
2126.5426,201.0973380901887
2128.0695,220.54701887529336
2129.5956,204.98895284267383
2131.1211,207.5733625255025
2132.6458,215.30046840706473
2134.1698,212.32048889492125
2135.693,221.68364024363382
2137.2155,219.14013658456042
2138.7373,229.89018983222468
2140.2584,227.98400970974853
2141.7787,221.12180364135747
2143.2983,214.9037767714417
2144.8171,211.33013203317478
2146.3353,197.30107021070035
2147.8527,172.1167899748625
2149.3693,215.02748802349925
2150.8853,178.08335933328635
2152.4005,174.58459673062862
2153.9149,200.7313912610989
2155.4287,181.12393222443097
2156.9417,219.26240691305065
2158.454,224.797000808152
2159.9655,200.3278971983118
2161.4764,203.90527712413768
2162.9865,177.4793196229648
2164.4958,184.70020169307554
2166.0045,179.61809855795855
2167.5124,181.9831835941077
2169.0195,197.74562838183283
2170.526,209.2056026816199
2172.0317,195.91327427649503
2173.5367,194.56880885744158
2175.0409,175.5723701563038
2176.5445,230.52411995924467
2178.0473,206.8242182967042
2179.5494,208.17282289388731
2181.0507,208.57008940775995
2182.5513,197.71617141356364
2184.0512,202.91122040083974
2185.5504,212.35538588196323
2187.0488,183.59881534020133
2188.5465,176.99165413526953
2190.0435,183.5340457908933
2191.5397,168.5261320608888
2193.0353,160.1180528637351
2194.5301,165.10994643265167
2196.0241,154.2519493996797
2197.5175,160.99419674576438
2199.0101,165.78682190933887
2200.502,143.77995671889494
2201.9931,118.22373134506142
2203.4835,114.86827452067337
2204.9733,108.61371379633692
2206.4622,148.81017557397354
2207.9505,140.3577851693717
2209.438,121.5566664102198
2210.9248,125.65694172063104
2212.4109,118.65873230914895
2213.8962,139.31215812775008
2215.3809,108.46733794183092
2216.8648,121.67438912367561
2218.3479,101.483427960894
2219.8304,107.74456952435685
2221.3121,96.80792787010978
2222.7931,103.42361597675063
2224.2733,98.44174585480596
2225.7529,86.262428480567
2227.2317,105.43577384591481
2228.7098,88.06189108010858
2230.1872,77.64088825805084
2231.6638,87.72287257402422
2233.1397,77.60795044590668
2234.6149,83.09622741434669
2236.0894,84.0378082439156
2237.5632,85.93279686822643
2239.0362,68.0312963805145
2240.5085,58.58340901469455
2241.9801,59.289236324367266
2243.4509,82.24887927730379
2244.921,48.662438248384206
2246.3904,73.630012790004
2247.8591,72.00170196793715
2249.3271,82.67760411165455
2250.7943,57.5578168306165
2252.2608,47.24243690751064
2253.7266,65.18156054944757
2255.1917,47.075283491112714
2256.656,47.573700815383745
2258.1197,48.276907134394605
2259.5826,40.33499658454275
2261.0447,55.44806281945421
2262.5062,48.2161990894092
2263.9669,71.33949809020396
2265.4269,57.668052035482106
2266.8862,70.85195242548798
2268.3448,74.39129018378571
2269.8026,91.58615552542415
2271.2598,79.23663792154184
2272.7162,62.89282592741529
2274.1719,84.754807305957
2275.6268,70.77266919115027
2277.0811,76.89649786943573
2278.5346,85.02637891953782
2279.9874,86.61239715121519
2281.4395,97.15463652396829
2282.8908,74.65318013117849
2284.3414,90.90811009468234
2285.7914,86.26950778978517
2287.2406,67.23745368271102
2288.689,80.96202737699423
2290.1368,81.79330780379587
2291.5838,79.58137308465848
2293.0302,89.87630052319673
2294.4758,69.6781666272118
2295.9206,72.63704700574726
2297.3648,65.40301657106738
2298.8082,78.27614950907719
2300.251,86.35651935164606
2301.693,85.7941988478924
2303.1343,75.88925988336905
2304.5748,85.59177348569028
2306.0147,76.85180992358164
2307.4538,89.31943860985211
2308.8922,82.34472818879749
2310.3299,93.92774641152118
2311.7669,70.06856020567739
2313.2031,88.0172355596469
2314.6387,62.02383776112765
2316.0735,66.83843121764949
2317.5076,73.76107971651163
2318.941,75.79184637662183
2320.3737,83.03079357928073
2321.8056,78.5279829478659
2323.2369,74.13347527545011
2324.6674,69.09733056981622
2326.0972,82.46960809742723
2327.5263,69.75036643376552
2328.9547,82.08966332962518
2330.3823,101.78755583829661
2331.8092,116.64410019217667
2333.2355,61.55935160578338
2334.661,92.18336412719236
2336.0858,98.76619118888175
2337.5098,81.0078853015093
2338.9332,93.80849798806958
2340.3558,92.81807996148564
2341.7778,87.2366809966079
2343.199,85.8643499401087
2344.6195,92.10113476629522
2346.0393,84.54708259082963
2347.4583,91.5022396083732
2348.8767,102.31665116811655
2350.2943,108.5903617042286
2351.7113,112.52341462770528
2353.1275,88.21585226364459
2354.543,107.36771581190987
2355.9578,114.12904559021626
2357.3718,82.44988084260785
2358.7852,97.68025967183257
2360.1978,89.92021935614594
2361.6098,78.81979619699632
2363.021,82.57902559663034
2364.4315,68.44794216910395
2365.8413,102.97657970269029
2367.2504,88.81497130118532
2368.6587,92.9131490386153
2370.0664,98.92114410086106
2371.4733,83.43898674467891
2372.8795,64.01670623761038
2374.285,72.6543310128236
2375.6899,67.00188886331671
2377.0939,72.35940685555397
2378.4973,72.02691138597311
2379.9,72.35442812742986
2381.3019,66.54198203250235
2382.7032,61.389597330242395
2384.1037,68.84729758429148
2385.5035,70.31510574439744
2386.9027,72.64304407183317
2388.3011,67.4311341247112
2389.6987,78.12939673472101
2391.0957,62.537852059234865
2392.492,54.55651947433307
2393.8876,29.985417730722475
2395.2824,41.9245650335497
2396.6765,50.023979288102055
2398.07,44.83367798042946
2399.4627,62.85367809634499
2400.8547,58.63399617332561
2402.246,53.174648120316306
2403.6366,49.27564925991919
2405.0265,24.137014382992675
2406.4156,24.808757787641298
2407.8041,35.99089353059935
2409.1918,39.28343542051698
2410.5789,27.886396906138543
2411.9652,32.44979104337699
2413.3508,20.373630609282372
2414.7358,33.20792805640758
2416.12,29.702695633573512
2417.5035,22.357945257518622
2418.8863,24.92368854795768
2420.2684,18.399936901028013
2421.6497,21.83670146363329
2423.0304,18.683993198681492
2424.4104,16.041822850713743
2425.7896,-4.439799022565239
2427.1682,8.28913797612995
2428.546,9.628688597674682
2429.9232,25.47890751005434
2431.2996,-0.5101507150334328
2432.6753,10.111568239322423
2434.0503,28.644123786436012
2435.4246,8.687575238511727
2436.7982,7.89198162131197
2438.1711,11.407401873728304
2439.5433,11.783894855731432
2440.9148,15.721519313219233
2442.2856,3.470333874255175
2443.6557,8.580397009686294
2445.025,5.001767155660218
2446.3937,10.134502662523118
2447.7617,0.1286618306053242
2449.1289,11.884302858894443
2450.4955,2.90148266104552
2451.8613,26.430258031873564
2453.2265,25.670685737178246
2454.5909,38.62282227846208
2455.9546,24.58672390052334
2457.3177,8.112446461935178
2458.68,10.70004557540733
2460.0416,18.09957677252396
2461.4025,36.01109547787155
2462.7627,16.334656935041494
2464.1222,32.07031602751886
2465.4811,19.718127475442543
2466.8392,36.37814567825035
2468.1966,32.20042483820043
2469.5533,43.835018793769905
2470.9093,47.431981061434726
2472.2645,58.39136471931988
2473.6191,42.063222371231404
2474.973,42.34760603706263
2476.3262,47.694567316076245
2477.6787,54.40415738406182
2479.0305,39.67642693986363
2480.3816,22.36142613828997
2481.7319,39.25920473738506
2483.0816,16.719812271583578
2484.4306,20.143297882730167
2485.7789,29.529710545470607
2487.1264,22.629099033018974
2488.4733,28.791511823297242
2489.8195,14.966997167933641
2491.165,11.155603030649218
2492.5097,17.307377225494292
2493.8538,11.37236745496375
2495.1972,12.150621248480547
2496.5398,6.942186021745783
2497.8818,18.04710906895707
2499.2231,7.315437614892289
2500.5637,5.997218703860199
2501.9035,9.09249930701526
2503.2427,11.451326335544309
2504.5812,25.82374660971027
2505.919,17.659806835265044
2507.256,32.60955345972616
2508.5924,24.97303275401464
2509.9281,2.000290662957923
2511.2631,-0.4586271183484314
2512.5974,18.74632508519153
2513.9309,14.715197530358182
2515.2638,4.098040286467949
2516.596,34.99490327568947
2517.9275,11.205836379210723
2519.2583,9.43088912827261
2520.5884,7.220110942056635
2521.9178,21.923551145436704
2523.2465,3.5412589910861243
2524.5745,2.123283512441958
2525.9018,7.019673707534366
2527.2284,5.180478553159446
2528.5543,5.305746955918494
2529.8796,10.94552777061017
2531.2041,26.19986979897476
2532.5279,13.918821733294862
2533.851,29.002432003861486
2535.1735,32.85074890177384
2536.4952,21.51382042810974
2537.8163,41.491694255441416
2539.1366,22.784417841201957
2540.4562,28.99203822790605
2541.7752,30.664602230227047
2543.0935,44.15215637291931
2544.411,36.45474687409205
2545.7279,39.42241951033611
2547.0441,61.205219693692925
2548.3596,57.20319244198481
2549.6744,63.66638216098272
2550.9885,54.59483268442682
2552.3019,68.98858720939552
2553.6146,59.8976883870223
2554.9266,56.972178178554714
2556.2379,72.66209794626548
2557.5485,61.76748848270654
2558.8585,57.48838985380871
2560.1677,80.22484150782975
2561.4762,61.77688231814591
2562.7841,61.44455035588771
2564.0913,76.07788307441751
2565.3977,84.92691731265359
2566.7035,81.44168914873626
2568.0086,84.02223381153908
2569.313,83.06858571551993
2570.6167,77.73077843491501
2571.9197,97.25884471327663
2573.222,77.05281651684982
2574.5236,98.01272483929279
2575.8246,99.3385999037373
2577.1248,118.83047095318625
2578.4244,101.0383662372592
2579.7232,121.1123128172726
2581.0214,115.35233674416031
2582.3189,113.1084628577346
2583.6157,133.58071484428365
2584.9118,130.1191152590127
2586.2072,124.1736853213215
2587.5019,109.19444494942081
2588.7959,117.08141281978442
2590.0893,134.63460651694277
2591.3819,127.35404245461177
2592.6739,123.53973570016251
2593.9652,135.09170004742646
2595.2557,131.6599480548375
2596.5456,135.29449092991354
2597.8348,130.84533856357484
2599.1234,124.51249949379871
2600.4112,125.69598095010952
2601.6983,139.84578891690808
2602.9848,132.91192812163627
2604.2705,136.44440189327952
2605.5556,132.99321223170546
2606.84,143.15835977233792
2608.1237,142.0398438206721
2609.4067,139.93766225061836
2610.689,128.3018115156924
2611.9707,120.78228667003214
2613.2516,133.92908148476135
2614.5319,106.5921885231769
2615.8115,107.27159900928791
2617.0903,114.1673031011801
2618.3685,127.37928988422618
2619.6461,119.35754730212602
2620.9229,107.15206202478794
2622.199,118.01281952854788
2623.4745,142.18980421822334
2624.7493,112.28299931850324
2626.0234,108.44238663218084
2627.2968,99.86794683922017
2628.5695,114.05965953516079
2629.8415,100.91750331686308
2631.1128,98.19145564059227
2632.3835,98.18149295344074
2633.6535,91.48759072058601
2634.9228,112.90972342539408
2636.1914,95.14786463635392
2637.4593,102.50198679285995
2638.7265,97.37206138282954
2639.9931,99.35805886916023
2641.259,103.30994874103271
2642.5242,101.9276994940501
2643.7887,101.46127859071157
2645.0525,98.11065247424403
2646.3156,107.92578657325885
2647.5781,120.60664533526369
2648.8398,103.05319212850782
2650.1009,83.41538911517773
2651.3613,85.84319742692696
2652.6211,96.93657736125715
2653.8801,100.14548835723872
2655.1385,110.86988888457654
2656.3961,107.20973641152341
2657.6531,106.66498729763316
2658.9094,108.53559683036292
2660.1651,108.22151923052206
2661.42,110.32270763356564
2662.6743,121.83911409273287
2663.9279,108.97068955803843
2665.1808,116.91738376110516
2666.433,131.47914534385382
2667.6846,128.30592177902872
2668.9354,125.54765922458319
2670.1856,120.50430255541323
2671.4351,137.6257953909403
2672.6839,127.61208014554336
2673.9321,134.61309785734466
2675.1795,136.52878828834764
2676.4263,130.3090898544258
2677.6724,137.15393960616552
2678.9179,137.01327329106402
2680.1626,136.83702528508024
2681.4067,137.52512859404214
2682.6501,144.02751485540875
2683.8928,141.9941143313879
2685.1348,128.47485584391507
2686.3761,142.61966679498573
2687.6168,141.12847330184923
2688.8568,128.00120005555937
2690.0961,126.33777033588535
2691.3348,130.63810614258477
2692.5727,127.10212821203709
2693.81,125.47975597424283
2695.0466,110.8209075881814
2696.2826,125.27549995803543
2697.5178,130.84344887977886
2698.7524,123.1246688966321
2699.9863,128.3190732433825
2701.2195,126.02657392357196
2702.452,127.19708165755151
2703.6839,135.23050590540743
2704.9151,133.4267548552557
2706.1456,141.03573534290922
2707.3755,136.7073528699143
2708.6046,147.69151152746213
2709.8331,152.03811403967075
2711.0609,154.8470616537445
2712.2881,150.01825409650678
2713.5145,160.55158954631247
2714.7403,171.89696468133388
2715.9654,178.60427457422884
2717.1899,189.32341257868597
2718.4136,183.5542702623511
2719.6367,207.3467372996372
2720.8591,202.20070152941548
2722.0809,188.8160487170901
2723.3019,205.04266260606028
2724.5223,218.23042505156377
2725.7421,227.6292158584124
2726.9611,219.33891264911495
2728.1795,228.1093907698878
2729.3972,217.84052337355934
2730.6142,204.23218133186515
2731.8306,199.5342333381368
2733.0462,183.0965460433838
2734.2612,163.368984103274
2735.4756,142.60141034251046
2736.6892,139.843685952108
2737.9022,130.04567069706832
2739.1145,123.85722294395805
2740.3262,103.47819975888751
2741.5372,97.20845696939614
2742.7475,83.54784936824103
2743.9571,91.04623077609608
2745.1661,89.95345417815702
2746.3744,70.16937164915839
2747.582,65.79383436430135
2748.7889,71.72669279709407
2749.9952,50.517796763107526
2751.2008,52.91699536064675
2752.4057,47.624137182838695
2753.61,52.789070293641544
2754.8136,30.46164228077214
2756.0165,37.291700204058316
2757.2188,31.22909081871171
2758.4204,32.7236605070284
2759.6213,18.77525533901394
2760.8215,28.38372105743747
2762.0211,32.998903217316865
2763.22,32.270647089833346
2764.4182,22.298797616179854
2765.6158,25.73319941484351
2766.8127,27.67369688132453
2768.009,8.72013415379115
2769.2045,23.57235509367615
2770.3994,13.280203475210783
2771.5936,7.14352283690323
2772.7872,-0.48784341553869126
2773.9801,-9.914051947841699
2775.1723,-8.13525455217814
2776.3639,-8.751503979342033
2777.5548,-7.262771708934224
2778.745,-2.5689417930320815
2779.9346,-3.819825728623755
2781.1235,-10.46520934896921
2782.3117,-16.604840327270722
2783.4992,-4.788361789289638
2784.6861,-9.16525097843305
2785.8723,-8.084937302374328
2787.0579,-2.346758607931406
2788.2428,-17.64997197339858
2789.427,-7.893811032952726
2790.6106,0.3226669024493276
2791.7935,5.100483381021149
2792.9757,3.690659947751101
2794.1573,3.644218096623945
2795.3382,1.8121792847182405
2796.5184,17.295564932670686
2797.698,21.44539644299607
2798.8769,17.51269504525544
2800.0551,27.19848175455786
2801.2327,44.003777410884595
2802.4096,59.679602582232974
2803.5859,65.32697739656237
2804.7615,83.39692138503847
2805.9364,104.99045342555428
2807.1106,93.25859156203455
2808.2842,119.15235278850173
2809.4572,145.52275316639134
2810.6294,167.47080756561627
2811.801,194.64752940086282
2812.972,223.85393041210955
2814.1423,236.1410203928608
2815.3119,287.2098068980815
2816.4808,318.66129512132716
2817.6491,363.2964873840556
2818.8167,405.1163828211131
2819.9837,435.6719769343815
2821.15,476.86426117458063
2822.3157,513.5942226357104
2823.4807,563.4628436431292
2824.645,600.4211013862548
2825.8086,647.2199674198769
2826.9716,685.3104072945741
2828.134,721.8433800887258
2829.2957,776.4198380276082
2830.4567,792.2907261180642
2831.617,801.6069816027382
2832.7767,813.6695338013685
2833.9358,825.4793040176246
2835.0941,809.6872054184812
2836.2519,801.6941429161216
2837.4089,785.8510133258567
2838.5653,780.8587054460581
2839.7211,768.8681002165888
2840.8761,752.6300707687235
2842.0306,767.4454825450582
2843.1843,785.515193461888
2844.3374,812.2900537610533
2845.4899,856.3709058292429
2846.6417,894.708583930247
2847.7928,937.9039137641471
2848.9433,981.5077120839401
2850.0931,1051.420786263585
2851.2422,1095.193933861966
2852.3907,1141.5279419237595
2853.5385,1186.8735865417013
2854.6857,1219.931632393252
2855.8323,1260.7028322871338
2856.9781,1291.6879268327552
2858.1233,1342.1876440324954
2859.2679,1367.302698971856
2860.4118,1398.4837933144615
2861.555,1436.9316150509117
2862.6976,1465.0468381869673
2863.8395,1497.3801223590754
2864.9808,1521.332112553214
2866.1214,1539.3534387815625
2867.2614,1545.2447158429761
2868.4007,1549.9565431427786
2869.5393,1570.7395046338454
2870.6773,1582.6941687694896
2871.8146,1580.7710882956285
2872.9513,1600.7708001312376
2874.0874,1587.4438253875835
2875.2227,1579.4906691682236
2876.3574,1548.6118207022805
2877.4915,1539.3077534239678
2878.6249,1511.9289252813842
2879.7577,1500.4257788295486
2880.8898,1492.0987415041923
2882.0212,1460.7482257367906
2883.152,1462.6746290378314
2884.2821,1431.2783343103213
2885.4116,1431.6597098305206
2886.5405,1425.7691095619068
2887.6686,1451.8568731513628
2888.7962,1442.9733259880798
2889.923,1449.3187789426822
2891.0493,1468.043528456062
2892.1748,1470.2978564759226
2893.2997,1478.1820302695348
2894.424,1497.9963024011906
2895.5476,1508.740910653362
2896.6706,1515.51607782856
2897.7929,1531.5720116418859
2898.9145,1553.458904653282
2900.0355,1565.0269341069704
2901.1559,1598.476261712587
2902.2756,1609.0070335294968
2903.3946,1639.7693796323033
2904.513,1663.9634140055398
2905.6308,1681.5392342360478
2906.7479,1706.0469212710336
2907.8643,1717.8865392423122
2908.9801,1719.8081352212307
2910.0953,1734.9117391002706
2911.2098,1732.3973635738334
2912.3236,1728.4150039872034
2913.4368,1714.5646383616927
2914.5494,1716.5462274344623
2915.6613,1674.4597147970278
2916.7725,1660.6050268754432
2917.8831,1633.582073351167
2918.9931,1616.4907472996065
2920.1024,1591.7309254603495
2921.211,1574.6524684080782
2922.319,1554.7052208001637
2923.4264,1548.0890115474554
2924.5331,1542.9536540137506
2925.6391,1537.6989460819564
2926.7445,1543.2246702054451
2927.8493,1540.6805934605993
2928.9534,1556.5664674915563
2930.0569,1543.5820285356458
2931.1597,1551.2269972645358
2932.2619,1548.401078914073
2933.3634,1553.9039632078347
2934.4643,1557.1853243853898
2935.5645,1541.1448211472655
2936.6641,1542.9320966221378
2937.763,1505.796778527235
2938.8613,1474.438479150464
2939.959,1446.656795721766
2941.056,1410.051310726697
2942.1523,1359.0715921842461
2943.248,1299.01719401289
2944.3431,1224.9376565403893
2945.4375,1153.4825071043338
2946.5313,1082.4512607929357
2947.6244,1000.7434211595842
2948.7169,924.4084809331544
2949.8087,855.0459228350883
2950.8999,794.2052203427431
2951.9904,727.5858383830177
2953.0803,675.7872339407586
2954.1696,623.708856724955
2955.2582,586.3001496867232
2956.3462,541.4605495400917
2957.4335,524.6894871360882
2958.5202,494.38638791113385
2959.6062,476.70067205475675
2960.6916,469.43175481262074
2961.7764,431.8290466633837
2962.8605,436.6919533913858
2963.9439,425.06987646267885
2965.0267,412.36221297639395
2966.1089,408.9683557809642
2967.1905,406.937693601202
2968.2714,404.06961107223583
2969.3516,408.3634887598173
2970.4312,414.8187031890029
2971.5102,418.73462680121406
2972.5885,425.16062788968657
2973.6662,430.64607056030945
2974.7432,431.34031466736565
2975.8196,423.74271575867806
2976.8954,435.9026250686669
2977.9705,425.4193895943265
2979.045,430.1423519736247
2980.1188,415.620850590336
2981.192,398.55421952681286
2982.2645,386.7917887091987
2983.3364,374.2828840780967
2984.4077,354.7768277061913
2985.4783,342.5229379233399
2986.5483,324.72052951163096
2987.6177,298.76891382792485
2988.6864,269.6173989818767
2989.7545,259.91529009545377
2990.8219,229.0618895944499
2991.8887,204.65649730550626
2992.9548,182.098410764645
2994.0204,157.43692546132365
2995.0852,140.07133506401578
2996.1495,123.65093166682641
2997.2131,102.62500596314726
2998.276,88.2928474098619
2999.3383,79.95374443760375
3000.4,69.35698459407888
3001.4611,46.40185462745626
3002.5215,42.98764059233599
3003.5812,26.26362807929945
3004.6404,18.179102249052335
3005.6989,19.48334799966426
3006.7567,19.075650047415138
3007.8139,-0.6447070862479904
3008.8705,2.271560929365819
3009.9264,-3.92625513442988
3010.9818,-2.238864529036505
3012.0364,-1.1169372825679602
3013.0905,-4.411121056881825
3014.1439,-13.672052355633468
3015.1966,-2.3003236153795115
3016.2487,-3.496390688874044
3017.3002,-12.61068644863792
3018.3511,-11.143608838249747
3019.4013,-11.14542982053024
3020.4509,-3.066310033648392
3021.4998,-3.056298772929381
3022.5481,-0.6154147012616704
3023.5958,4.656354050891537
3024.6428,-0.3909744989415458
3025.6892,5.642617620204078
3026.735,-3.842847714872164
3027.7802,5.952651316203628
3028.8247,10.779174923852338
3029.8685,8.186783258969854
3030.9118,20.825536364660024
3031.9544,23.24549420215976
3032.9963,24.446716524450608
3034.0376,43.82926285205963
3035.0783,31.34319246104758
3036.1184,41.58856418918276
3037.1578,48.5154365608023
3038.1966,50.47386768435808
3039.2348,52.76391518314756
3040.2723,58.435636175730224
3041.3092,63.38908725302622
3042.3455,69.77432442159977
3043.3811,53.94140305412486
3044.4161,61.490377825532846
3045.4505,66.821302871341
3046.4842,58.984231712163364
3047.5173,53.97921720040142
3048.5498,64.85631159861475
3049.5816,61.06556662957121
3050.6128,69.10703336747667
3051.6434,58.53076227588156
3052.6734,65.58680312726631
3053.7027,64.5752051088042
3054.7314,65.8960167518004
3055.7594,64.54928594180876
3056.7868,61.985059905422986
3057.8136,71.7533852237442
3058.8398,59.55430785802298
3059.8653,59.73787305197595
3060.8902,57.654125453777056
3061.9145,61.753109114221616
3062.9381,58.884867507563854
3063.9612,61.29944349052721
3064.9835,68.54687933098705
3066.0053,60.52721668382446
3067.0264,67.990496518452
3068.0469,59.83675919901111
3069.0668,63.56604440973808
3070.086,57.47839123650226
3071.1046,52.97383812951307
3072.1226,51.502422964196626
3073.1399,48.36418308624002
3074.1567,49.859155326306904
3075.1727,43.137376031419194
3076.1882,40.048881050007594
3077.203,41.09370579912945
3078.2173,38.32188529535392
3079.2308,34.53345414431294
3080.2438,22.828446568420645
3081.2561,32.256896444756194
3082.2678,22.66883742211496
3083.2789,19.56430282672318
3084.2893,21.493325758119227
3085.2991,18.005939120198946
3086.3083,16.552175601925455
3087.3169,11.982067712201854
3088.3248,14.395647794410422
3089.3321,12.94294807211287
3090.3388,7.224000624914481
3091.3449,12.18883740299134
3092.3503,10.08749028427951
3093.3551,7.319991024827232
3094.3593,5.736371279808111
3095.3629,9.286662631196009
3096.3658,6.72089660360183
3097.3681,6.489104628770065
3098.3698,2.041318071236276
3099.3708,6.027568230645443
3100.3713,1.9478863862293565
3101.3711,2.3023037569446387
3102.3702,-7.209148457730635
3103.3688,10.913560918658959
3104.3667,9.620535081961691
3105.364,2.7118771188906976
3106.3607,0.23769001995390227
3107.3568,5.648076748540632
3108.3522,-2.5068621064834247
3109.347,5.022973987267051
3110.3412,3.137710605729467
3111.3348,3.487473274611716
3112.3277,8.872387488244726
3113.32,7.392578706084976
3114.3117,-1.3018277011344708
3115.3028,3.8892935633932666
3116.2932,4.416080801733813
3117.2831,6.228672277060014
3118.2723,5.227206208384359
3119.2608,8.461820752432516
3120.2488,3.7326540136587028
3121.2361,7.4898440118988105
3122.2229,7.333528729662646
3123.209,1.163846074561775
3124.1944,8.78093388087268
3125.1793,10.634918356049411
3126.1635,15.375925619736677
3127.1471,9.254081685230062
3128.1301,9.319512412066388
3129.1125,8.272343567241592
3130.0942,14.312700824556885
3131.0753,13.040709775090193
3132.0558,9.05649586679283
3133.0357,15.160184417208598
3134.015,13.351900653316989
3134.9936,18.431769650495596
3135.9716,13.59991635060311
3136.949,18.856465511181
3137.9258,18.1015417537717
3138.902,22.135269511352703
3139.8775,18.20777303588659
3140.8524,19.669176357983133
3141.8267,21.319603326174843
3142.8004,32.60917759230233
3143.7735,29.53802259501026
3144.7459,32.30626144685152
3145.7178,29.06401696499887
3146.689,26.861411643562462
3147.6596,35.04856768601263
3148.6295,29.12560702720566
3149.5989,28.942651251512586
3150.5676,28.69982165204857
3151.5357,25.047239232502307
3152.5032,33.735024709564186
3153.4701,37.91329854945229
3154.4364,31.032180881034776
3155.402,32.891791454046825
3156.367,42.94224970790225
3157.3315,32.93367475309719
3158.2952,35.21618527070564
3159.2584,37.48989961246497
3160.221,45.9049357779507
3161.1829,36.71141139183965
3162.1442,39.459443619759384
3163.105,41.049149260223146
3164.065,41.33064471714982
3165.0245,42.70404598396715
3165.9834,40.019468640796276
3166.9416,44.8770278407182
3167.8993,40.026838336619505
3168.8563,46.41901443261662
3169.8127,42.30367003255776
3170.7684,47.08091857610103
3171.7236,52.30087307986804
3172.6782,46.913646089671374
3173.6321,48.36934962831481
3174.5854,51.26809524946577
3175.5381,51.85999402309835
3176.4902,52.1451565065056
3177.4417,50.173692738380794
3178.3926,55.89571223596596
3179.3428,64.2113240147662
3180.2924,58.62063653132961
3181.2415,58.87375760009127
3182.1899,60.520794449279975
3183.1377,57.911853718387135
3184.0848,55.1470414416965
3185.0314,65.87646307437336
3185.9773,59.30022352011258
3186.9227,61.068427023844464
3187.8674,58.83117723749717
3188.8115,62.43857720231463
3189.755,61.24072937122929
3190.6979,67.33773557278778
3191.6402,72.47969702312963
3192.5818,68.96671426501689
3193.5229,66.09888711641509
3194.4633,76.62631470562246
3195.4031,69.44909549994867
3196.3423,68.31732720044013
3197.2809,75.33110681365247
3198.2189,74.44053066296826
3199.1563,74.74569431845893
3200.0931,75.19669260579076
3201.0292,72.14361960317319
3201.9648,81.63656863684892
3202.8997,79.67563231162447
3203.834,85.51090241594085
3204.7677,84.79246994148284
3205.7008,82.77042502482644
3206.6333,85.94485695462282
3207.5652,87.6158541918191
3208.4964,93.03350433791383
3209.4271,83.29789411824711
3210.3571,84.45910932782411
3211.2865,89.86723492867097
3212.2154,88.82235503822295
3213.1436,92.57455287524292
3214.0712,94.87391077027038
3214.9982,95.72051012809928
3215.9246,97.71443140478442
3216.8503,96.75575409917568
3217.7755,99.19455673297864
3218.7001,101.4309168603414
3219.624,102.96491104346653
3220.5473,102.29661483024753
3221.4701,104.77610273892881
3222.3922,109.25344826478872
3223.3137,112.27872385534458
3224.2346,105.60200086557944
3225.1549,107.97334952768908
3226.0746,111.14283901784925
3226.9937,107.3105374325024
3227.9121,111.7765117566627
3228.83,113.34082790223894
3229.7473,113.80355066337489
3230.6639,113.814743700806
3231.5799,114.17446953723237
3232.4954,116.28278955720666
3233.4102,119.03976400353692
3234.3244,119.34545195620332
3235.238,124.74991130478838
3236.151,122.35319874542022
3237.0634,126.90536972672776
3237.9752,124.70647847380802
3238.8864,122.35657794270433
3239.797,124.15571984239524
3240.7069,126.60395465829355
3241.6163,130.0013316342548
3242.5251,128.1978987480951
3243.4332,134.29370267761723
3244.3408,132.838788818645
3245.2477,135.38320122406523
3246.154,130.87698261837687
3247.0598,133.37017437224685
3247.9649,135.91281654757236
3248.8694,134.4049478725488
3249.7733,132.59660571624335
3250.6766,138.23782610367397
3251.5793,136.12864373389232
3252.4814,135.46909192357197
3253.3829,137.65920262810005
3254.2838,140.0990064481727
3255.1841,142.6385326078941
3256.0838,146.07780893037844
3256.9829,147.51686181235448
3257.8814,145.30571618977297
3258.7792,142.89439552341605
3259.6765,151.43292182100873
3260.5731,148.27131566133204
3261.4692,147.2595961088378
3262.3647,147.54778074526476
3263.2595,148.68588567975564
3264.1538,145.07392554597547
3265.0474,149.96191349073027
3265.9404,151.89986121008695
3266.8329,148.7377789004932
3267.7247,148.0256752393982
3268.616,144.76355741687323
3269.5066,145.90143114273286
3270.3966,141.6893006791561
3271.286,138.62716882930766
