RamanShift,CorrectedData
30.1047,6734.459277145961
32.3739,6282.276126197727
34.6426,5839.792907904899
36.9109,5390.959492100124
39.1787,4950.675690218118
41.4461,4506.241259783998
43.7131,4060.3059088161276
45.9796,3631.5193002704523
48.2456,3195.381056499855
50.5112,2765.0907635420235
52.7764,2327.797975480835
55.0411,1891.9522187492573
57.3054,1458.452996502277
59.5692,1033.5997929753585
61.8326,610.6420778194355
64.0955,181.62931034944359
66.3579,-234.28905622610193
68.6199,-630.063570514979
70.8815,-988.4924405772942
73.1426,-1231.6175801380848
75.4032,-1144.721027882909
77.6634,-182.87251863770143
79.9231,2839.569648534673
82.1824,10492.099001467806
84.4412,31024.0590395996
86.6995,57715.09315744696
88.9574,59343.044439286205
91.2148,58852.85539224273
93.4717,58370.26793001148
95.7282,57900.17337775886
97.9842,57430.862476948576
100.2398,56966.975390042615
102.4949,56508.75170519435
104.7495,56051.03044088739
107.0036,55587.05005051785
109.2573,55131.24842697154
111.5105,54673.56290726376
113.7632,54214.98027709735
116.0154,53749.68677543951
118.2672,53306.26809910768
120.5185,52848.15940742238
122.7693,52393.295326641506
125.0197,51938.85995454133
127.2696,51490.13686496518
129.519,51034.45911236778
131.7679,50578.959236302515
134.0163,50125.21926597816
136.2642,49678.52072481392
138.5117,49224.8946349768
140.7587,48786.271521848634
143.0052,48337.5314185623
145.2512,47896.20387038793
147.4967,47454.417939220395
149.7417,47010.802207992514
151.9863,46570.384785092916
154.2304,46126.24330880224
156.4739,45689.70495169728
158.717,45254.796425092354
160.9596,44813.74398340481
163.2017,44379.873428504
165.4433,43951.2101141218
167.6844,43522.87895019141
169.925,43093.40440713393
172.1651,42668.360520141665
174.4047,42242.22089347289
176.6439,41811.70870470226
178.8825,41389.446708982214
181.1206,40961.45724334816
183.3582,40539.66223094099
185.5954,40123.58318528703
187.832,39700.64121451603
190.0681,39288.40702552188
192.3037,38872.35092819214
194.5388,38459.54283953026
196.7734,38047.40228781622
199.0075,37629.99841673457
201.2411,37228.94998949588
203.4742,36827.225393010725
205.7068,36427.34264190022
207.9389,36023.11938251322
210.1704,35624.22289692519
212.4015,35224.62010698037
214.632,34832.377578280866
216.862,34447.66152418252
219.0915,34064.98780971745
221.3205,33677.12195544118
223.549,33293.72914125935
225.777,32912.624210306356
228.0044,32527.57167277935
230.2314,32150.585709749248
232.4578,31774.280177011264
234.6837,31393.018608854756
236.909,31015.914221826337
239.1339,30608.779918542437
241.3582,30259.92829146037
243.582,29861.97162694967
245.8053,29504.221908780593
248.0281,29147.590822103673
250.2503,28780.33975702723
252.472,28414.07981218367
254.6932,28053.671798402072
256.9139,27696.926242370682
259.134,27342.953390241077
261.3536,26988.61321119556
263.5727,26636.81540098694
265.7912,26287.319385481904
268.0092,25943.384324178987
270.2267,25602.219113703577
272.4436,25261.08239124719
274.6601,24917.23253797921
276.8759,24589.127682458173
279.0913,24245.92570407031
281.3061,23919.184236310604
283.5204,23582.3106702148
285.7341,23250.01215762683
287.9473,22910.395614567497
290.16,22598.16772455755
292.3721,22279.98494201377
294.5837,21962.203495371286
296.7947,21642.529390265423
299.0052,21330.11841270951
301.2152,21016.97613229161
303.4246,20715.807905298614
305.6334,20404.61887784767
307.8418,20100.263988897925
310.0495,19786.14797336237
312.2568,19488.175365151386
314.4635,19192.900500313895
316.6696,18901.077520017083
318.8752,18589.560373499145
321.0802,18308.60282098753
323.2847,18012.608436814102
325.4887,17725.730612224717
327.692,17445.172558339204
329.8949,17165.987309020085
332.0972,16884.277723678162
334.2989,16598.296490064386
336.5001,16324.946127086943
338.7007,16053.578987671091
340.9008,15781.497261492601
343.1003,15512.252977691496
345.2992,15242.698007592888
347.4976,14980.98406739936
349.6955,14712.962720886571
351.8927,14453.93538202034
354.0895,14188.603317636887
356.2856,13944.817650033132
358.4812,13698.279359619984
360.6763,13447.889287360209
362.8707,13195.298137233789
365.0646,12955.756478741867
367.258,12710.764749432616
369.4508,12464.973257296653
371.643,12224.332183216997
373.8346,11991.091583426933
376.0257,11759.601391916462
378.2162,11527.31142276463
380.4062,11292.821372454557
382.5956,11071.73082219626
384.7844,10850.989240271556
386.9726,10627.145984245028
389.1603,10409.000303171335
391.3474,10165.001339833776
393.5339,9983.198132925674
395.7199,9769.73961949037
397.9052,9567.724636739236
400.09,9361.05192418625
402.2743,9156.520125668183
404.4579,8958.47779141133
406.641,8753.473380076786
408.8235,8560.855260740937
411.0054,8364.471714945481
413.1868,8163.570938623605
415.3675,7970.301044063832
417.5477,7781.160061918978
419.7273,7596.895943138887
421.9064,7408.406560861855
424.0848,7230.039712257247
426.2627,7047.293120410322
428.4399,6872.414436106017
430.6166,6692.551239656284
432.7928,6514.951042648994
434.9683,6356.261289746515
437.1432,6182.729360461781
439.3176,6031.202570745096
441.4914,5866.578174719543
443.6645,5699.253366196237
445.8371,5538.325280320496
448.0091,5378.9909952451635
450.1806,5233.147533739895
452.3514,5082.74186478449
454.5216,4926.720905027294
456.6913,4780.931520289232
458.8603,4640.920527124101
461.0288,4505.53469427635
463.1967,4366.770744081252
465.3639,4221.825353818778
467.5306,4087.3951571011858
469.6967,3957.276745322524
471.8622,3832.2166690028826
474.0271,3696.7614390896197
476.1914,3561.6575282079575
478.3551,3444.101372015568
480.5182,3321.0393705535607
482.6807,3211.11788942205
484.8426,3100.3332610108264
487.0039,2972.6817855985137
489.1647,2856.0097324604067
491.3248,2744.8633411450355
493.4843,2645.2888226408104
495.6432,2536.882360487609
497.8015,2419.0901117724206
499.9592,2314.058208213457
502.1163,2214.0327573380346
504.2728,2125.7598435329273
506.4287,2040.5355290445805
508.5839,1944.155854861834
510.7386,1848.816841568194
512.8927,1747.664490305644
515.0461,1665.944783727944
517.199,1581.9536870123338
519.3512,1498.1371486766511
521.5029,1416.5911014192097
523.6539,1340.8614629570366
525.8043,1266.2441368412474
527.9541,1190.935013214359
530.1033,1113.679969556506
532.2519,1054.3748714385001
534.3999,983.3155732944288
536.5472,924.3979190146056
538.694,859.917742656231
540.8401,794.5708690325919
542.9856,726.3031143578264
545.1305,661.860286900388
547.2748,604.9881876657164
549.4185,554.5326110406531
551.5615,502.883307579963
553.704,464.87448805763415
555.8458,416.13533944336814
557.987,377.940404610672
560.1276,332.9100692409411
562.2675,288.06094339093397
564.4069,254.55631134575378
566.5456,219.55657966165745
568.6837,191.2196118773063
570.8212,155.30107816109376
572.958,124.95473839751503
575.0942,102.0828010132318
577.2299,78.38622613699408
579.3648,69.61495409040799
581.4992,56.3681421165893
583.6329,35.14425200520782
585.766,6.041182428169122
587.8985,-20.143519033699704
590.0304,-62.61236515104247
592.1616,-72.01766746076464
594.2922,-92.66111200226442
596.4222,-107.49366535845911
598.5515,-125.71536842780915
600.6802,-140.82518824710132
602.8083,-143.5208359566459
604.9358,-157.39861585316248
607.0626,-165.85339846030547
609.1888,-181.22848188952776
611.3144,-186.76550737689104
613.4393,-192.4543056859402
615.5636,-199.3828417928671
617.6873,-202.83715805536485
619.8103,-203.70130499661173
621.9327,-205.95730679659027
624.0544,-201.48515265929018
626.1756,-204.0627742752622
628.2961,-214.21609049848485
630.4159,-213.96898159586272
632.5351,-211.7931878155723
634.6537,-216.95831185572024
636.7716,-222.68184060051863
638.8889,-222.6290935206125
641.0056,-217.66316549514158
643.1216,-214.74492733858642
645.237,-204.68307541042304
647.3518,-193.23416076834837
649.4659,-189.85268968612218
651.5793,-181.79123802830873
653.6922,-177.90048503110302
655.8043,-178.62929383627488
657.9159,-176.7265258065163
660.0268,-165.4410405181843
662.137,-160.87169578035537
664.2466,-165.16734774773067
666.3556,-150.62685096624773
668.4639,-139.94905833015946
670.5716,-121.18282122742676
672.6786,-119.2269896464204
674.785,-116.68041236367571
676.8907,-102.49193696345901
678.9958,-87.41040986317967
681.1002,-78.18467645527562
683.204,-75.26358125807019
685.3072,-63.845968007961346
687.4097,-45.38067968872201
689.5115,-31.566558645696205
691.6127,-14.602446770310053
693.7132,4.212814361664641
695.8131,-8.06961667939322
697.9123,16.801418634757283
700.0109,32.02707891311002
702.1089,53.80852259667881
704.2061,75.89690780621459
706.3028,84.49339212441555
708.3987,103.59913237503497
710.4941,126.36528453688516
712.5887,150.9430035528494
714.6827,160.98344310216635
716.7761,191.4377553546292
718.8688,206.1570908702488
720.9608,218.74259829464427
723.0522,231.24542421184742
725.1429,261.6667130185815
727.233,287.507606799154
729.3224,311.919245021214
731.4112,334.9527642774483
733.4993,360.15929804134066
735.5867,381.73997643686016
737.6735,407.69592598645977
739.7596,431.07826939525694
741.845,458.2881252914667
743.9298,486.1766079925219
746.014,514.794827233025
748.0974,529.94388788582
750.1802,560.6748896758363
752.2624,593.9389270286265
754.3439,619.9870887630241
756.4247,646.9204577585115
758.5048,684.9901106947364
760.5843,711.4471177821542
762.6631,743.0425423813358
764.7413,778.6274407383899
766.8188,809.1528616690848
768.8956,839.6698462029235
770.9718,873.4294272779007
773.0473,911.782629435409
775.1221,947.9804684825576
777.1962,982.6239511086605
779.2697,1011.3140745232304
781.3426,1029.3518261095742
783.4147,1084.2381831378661
785.4862,1120.12411258481
787.557,1162.4105705847687
789.6271,1194.8985020709151
791.6966,1243.8888403523597
793.7654,1279.5325067892845
795.8335,1325.9804103030474
797.901,1361.8334470196714
799.9678,1398.6424998054135
802.0339,1441.1084379082458
804.0993,1471.1821165897709
806.1641,1528.7643767005284
808.2282,1574.3060443792783
810.2916,1616.8079304771818
812.3544,1662.2708301024177
814.4164,1711.8455221950935
816.4778,1749.7827690726626
818.5385,1796.583315934171
820.5986,1842.5978904808799
822.658,1888.7272024482372
824.7166,1941.1719431456877
826.7747,1984.132784995476
828.832,2038.9103810081942
830.8886,2083.7553643531137
832.9446,2137.168347810417
834.9999,2188.649923322788
837.0545,2235.8506614612634
839.1085,2289.971110910403
841.1618,2338.561797996321
843.2143,2397.5232261454803
845.2662,2457.1558753987847
847.3175,2502.4102018218837
849.368,2560.0366369089024
851.4179,2615.885587129924
853.467,2671.2074333546625
855.5155,2726.9025302940718
857.5633,2782.921205947052
859.6105,2840.8137610435006
861.6569,2901.5804684841496
863.7027,2948.3215727616116
865.7478,3018.8372893527558
867.7922,3075.0278042512364
869.8359,3140.0432732623885
871.8789,3192.9338214413146
873.9212,3229.099542442673
875.9629,3323.490497991821
878.0039,3382.3567175231947
880.0441,3448.448197236321
882.0837,3512.1148995072435
884.1226,3570.9567522275684
886.1609,3632.373648167748
888.1984,3691.865444388699
890.2352,3769.9319616277353
892.2714,3807.022983703493
894.3069,3895.8882567353503
896.3416,3943.7774887724154
898.3757,4009.8403489050033
900.4091,4001.926466785626
902.4418,4167.0354319684775
904.4739,4190.516793988492
906.5052,4271.070060710255
908.5358,4312.244698093244
910.5658,4356.890129386229
912.595,4434.70573471555
914.6236,4384.390850638665
916.6515,4615.094769365969
918.6786,4517.466739263989
920.7051,4636.455962548323
922.7309,4685.911596259939
924.756,4801.632751075253
926.7804,4828.668490811622
928.8041,4777.917831270075
930.8272,4950.979739964983
932.8495,5056.2031366316005
934.8711,5034.636891495356
936.892,5025.179824219667
938.9123,5148.480704121641
940.9318,5153.43825026659
942.9506,5205.551130235101
944.9688,5311.0179600734045
946.9862,5172.237303772228
949.003,5373.507672212196
951.019,5202.877524551572
953.0344,5348.745266213569
955.0491,5376.659250592667
957.063,5560.117777595893
959.0763,5653.519093363742
961.0888,5536.861388435587
963.1007,5785.192796815631
965.1119,5877.3113971394705
967.1223,5819.815210190813
969.1321,6113.30219798028
971.1412,5918.470264320371
973.1495,5863.367251890624
975.1572,6083.190944185924
977.1641,6084.289066067511
979.1704,6160.009281564759
981.1759,6274.349193864175
983.1808,6116.956344552214
985.1849,6213.278212471894
987.1884,6464.21221529672
989.1911,6708.3557085673965
991.1932,6142.355983182577
993.1945,6438.310262957384
995.1951,6749.765710283435
997.1951,6409.469423169277
999.1943,6442.468432125817
1001.1928,6397.659703569305
1003.1906,6625.490139491318
1005.1877,6039.056577906886
1007.1841,6028.155790576166
1009.1798,6150.334488868801
1011.1748,6169.539323872908
1013.1691,6144.566885173248
1015.1627,4575.113700659233
1017.1556,5495.076236774643
1019.1477,5781.650914212165
1021.1392,5124.0340987137315
1023.1299,4170.0720982047715
1025.12,5055.361169370408
1027.1093,4655.847527195008
1029.0979,4692.477336109347
1031.0859,4671.046713985736
1033.0731,3978.9017317717735
1035.0596,4443.538413704591
1037.0454,4302.702744232338
1039.0304,3918.6406633678125
1041.0148,3070.598068096813
1042.9985,3364.2708162187846
1044.9814,4031.7047348272317
1046.9636,3114.945617372985
1048.9452,3326.589216989858
1050.926,3177.6812556622317
1052.9061,3258.7174221086098
1054.8855,3444.343373270749
1056.8642,3064.85473350322
1058.8421,2830.8970927171904
1060.8194,2980.9660101752816
1062.7959,2732.757016831187
1064.7717,3191.2656138289967
1066.7469,2961.187274985212
1068.7213,3147.0674422037046
1070.695,2835.551527776479
1072.6679,2415.634912524896
1074.6402,2717.1629489148036
1076.6117,2428.5309652557116
1078.5826,2526.6342626855258
1080.5527,2676.6181180568456
1082.5221,2479.47778295599
1084.4908,2876.4584822030884
1086.4587,2939.305415823568
1088.426,3109.4137550782616
1090.3925,2987.378641834992
1092.3584,2968.795186867472
1094.3235,2497.558471075652
1096.2879,2447.5635456715754
1098.2515,2529.9554368917234
1100.2145,2458.329146496966
1102.1767,2433.529650948629
1104.1382,2612.8019021247746
1106.099,2705.5408275682566
1108.0591,2797.9413286939016
1110.0185,2511.748279861138
1111.9771,3052.70652745002
1113.9351,2666.3608927231035
1115.8923,2178.806166415903
1117.8488,1808.687112600317
1119.8045,1314.2484735602193
1121.7596,1446.8849734926262
1123.7139,1220.4413234520762
1125.6675,1258.1622200243
1127.6204,1332.2923475906573
1129.5726,1172.4263779508838
1131.524,1354.9089695818402
1133.4748,1493.4847692361218
1135.4248,1329.398410117261
1137.3741,1418.5445104939427
1139.3226,1351.0176753409178
1141.2705,1392.9124954475265
1143.2176,1244.2735480929769
1145.164,1145.1953966273504
1147.1097,1262.5725919580436
1149.0546,1283.5496735404959
1150.9989,1274.4711682044945
1152.9424,1108.531589944323
1154.8852,975.9254400095888
1156.8272,794.2972085645451
1158.7686,982.0413760142474
1160.7092,613.1024148208235
1162.6491,521.9747876259935
1164.5883,754.0529509405096
1166.5267,712.0313560553695
1168.4644,974.0044467210537
1170.4014,1101.1166595677278
1172.3377,1426.2124214855503
1174.2732,1695.086148353519
1176.2081,1772.332241788543
1178.1421,1905.6450864567014
1180.0755,2201.5690493007423
1182.0082,2059.598478207001
1183.9401,2067.677699046173
1185.8713,1837.8010170929701
1187.8017,1618.6627169453786
1189.7315,1480.5070648233814
1191.6605,1096.328310760393
1193.5888,878.5206899847253
1195.5163,804.2784267614843
1197.4432,646.9457365705675
1199.3693,584.2168268491077
1201.2947,426.0858985647865
1203.2193,394.79714684318606
1205.1432,436.39476254903275
1207.0664,452.6729325990891
1208.9889,486.9758395461831
1210.9106,471.5976614164538
1212.8316,487.4825713662576
1214.7519,630.0747378360102
1216.6715,566.8683243912965
1218.5903,595.4574882969828
1220.5084,543.9363811492512
1222.4257,564.8991485897423
1224.3424,312.18993082076486
1226.2583,390.3028623956561
1228.1735,513.8320747458565
1230.0879,474.2216953998068
1232.0016,629.3658467476198
1233.9146,679.0086464371998
1235.8269,562.7942058228073
1237.7384,555.9166294686438
1239.6492,287.07001631098683
1241.5592,272.1984597269766
1243.4686,49.196050223035854
1245.3772,62.25687558366917
1247.285,-6.174976898611931
1249.1922,-140.40542055381957
1251.0986,-75.89036865024536
1253.0042,-153.4343318060637
1254.9092,-71.59106249469914
1256.8134,-13.06278038059827
1258.7169,240.3990100664305
1260.6196,342.4429348737831
1262.5216,571.0176176648456
1264.4229,657.2216786386125
1266.3234,892.7537322839271
1268.2232,984.8123865174202
1270.1223,925.9962403282261
1272.0207,950.2038828573495
1273.9183,874.3838939858833
1275.8151,839.784844092901
1277.7113,808.4052948136377
1279.6067,630.5937993855041
1281.5014,505.9989029619028
1283.3953,371.91914439028915
1285.2885,364.8030574581935
1287.181,320.0491722339284
1289.0727,404.2560151378566
1290.9637,386.7721093898508
1292.854,582.6459741672588
1294.7435,686.6761247797258
1296.6323,904.3610707104745
1298.5204,1224.1493145759814
1300.4077,1512.689349949127
1302.2943,1684.4796581613118
1304.1802,1886.9687054170354
1306.0653,1820.3049410760068
1307.9497,1722.286795628308
1309.8333,1694.0626813609415
1311.7162,1768.8309933380733
1313.5984,1827.0901096832458
1315.4798,1948.938390831725
1317.3605,2077.4741789479012
1319.2405,2340.5457967067705
1321.1197,2426.701546008582
1322.9982,2326.0897053481676
1324.876,2432.608528953322
1326.753,2399.2562477909814
1328.6293,2524.331068501968
1330.5048,2655.881173734597
1332.3796,2574.0547208938588
1334.2537,2620.749840825956
1336.127,2581.5146386365523
1337.9996,2608.497193223855
1339.8714,2582.2955576709282
1341.7426,2502.70775897587
1343.6129,2558.8317983138477
1345.4826,2473.215651832965
1347.3515,2506.007270093054
1349.2196,2519.0045789218057
1351.087,2589.005479086838
1352.9537,2658.607846165789
1354.8197,2826.3095298462213
1356.6849,3082.2583532296776
1358.5493,3077.102111154585
1360.4131,3156.688567636811
1362.276,3049.7654559212315
1364.1383,2950.6304776858306
1365.9998,2707.781304110991
1367.8606,2443.3155768707948
1369.7206,2250.380910561522
1371.5799,2059.9748953463277
1373.4384,1945.1950988845274
1375.2962,1870.1890682357262
1377.1533,1600.704331007597
1379.0096,1286.6883961059211
1380.8652,1078.6387564294491
1382.7201,862.3028920100696
1384.5742,635.6282720933159
1386.4275,505.66235730169865
1388.2802,370.80260190145054
1390.132,258.6964551021738
1391.9832,290.04136240544904
1393.8336,144.93476672593533
1395.6832,127.324108077868
1397.5322,63.70682502616182
1399.3803,31.580354862489912
1401.2278,-72.15786575852326
1403.0745,-17.71040049802832
1404.9204,-66.97909216012704
1406.7656,-18.515606622029736
1408.6101,-53.82094063982731
1410.4538,-89.8959059987028
1412.2968,-14.740776812650438
1414.139,-88.00492913558264
1415.9805,95.71240823892731
1417.8213,111.91288568654636
1419.6613,214.7981526258336
1421.5006,428.71985735623093
1423.3391,685.9796460292273
1425.1769,961.3791605091283
1427.0139,1509.3200358004615
1428.8502,2149.0538972939758
1430.6858,2673.682355287201
1432.5206,3037.9569985871894
1434.3547,3366.7793892641494
1436.188,3484.3010590087542
1438.0206,3455.6735058438753
1439.8524,3289.148192949371
1441.6835,3224.0265489483972
1443.5139,3221.109969572637
1445.3435,3131.349818313516
1447.1724,3130.697426451381
1449.0005,3101.704093953107
1450.8279,2999.2710894785923
1452.6545,3018.149650670701
1454.4804,3104.5409851796067
1456.3056,3095.696270474
1458.13,3085.716652977164
1459.9536,2971.553248155451
1461.7766,2629.9071406180665
1463.5987,2250.929385258707
1465.4202,1911.621010671999
1467.2409,1584.7330229433064
1469.0608,1400.1664090417835
1470.88,1174.2721400892515
1472.6984,999.4011732058898
1474.5161,783.2044537691727
1476.3331,674.8329171625555
1478.1493,623.3874909374827
1479.9648,533.2690958970561
1481.7795,496.078646610571
1483.5935,476.3170523146073
1485.4067,472.185217284994
1487.2192,487.98404103439316
1489.031,442.3644183536053
1490.842,443.9272391536324
1492.6522,463.3233889218245
1494.4618,451.703748706288
1496.2705,455.6691949219021
1498.0785,503.1205994665106
1499.8858,444.6588296812879
1501.6924,475.8347478762116
1503.4981,557.2492119146955
1505.3032,527.2030749018013
1507.1075,576.2471843701351
1508.911,565.2823825802807
1510.7138,540.7095060303436
1512.5159,501.2793855656382
1514.3172,482.5428466243975
1516.1178,384.40070963208564
1517.9176,451.1037901887539
1519.7166,445.6529000504743
1521.515,438.1488464622853
1523.3126,434.1924322127088
1525.1094,399.1344557087832
1526.9055,413.1257110156439
1528.7008,331.5169882070877
1530.4954,230.2090732256729
1532.2893,356.00274869880013
1534.0824,238.99879495178902
1535.8747,320.0479887499496
1537.6663,285.0011044686107
1539.4572,259.80891328263533
1541.2473,306.27218351687407
1543.0367,316.1916808980968
1544.8253,263.7681680903697
1546.6132,332.1024045958584
1548.4003,268.6451472790359
1550.1867,287.99714968337867
1551.9723,345.05916266592976
1553.7572,382.33193420374664
1555.5414,406.46620882332354
1557.3247,397.66272722783106
1559.1074,455.6722260557981
1560.8893,526.9954379691371
1562.6705,575.433091073046
1564.4509,697.7359082027651
1566.2305,723.6046064392249
1568.0094,919.8398958860053
1569.7876,1011.3424794106359
1571.565,1055.5630506822781
1573.3417,1153.902293256655
1575.1176,1179.7608801338793
1576.8928,1199.139472775034
1578.6672,1118.538720843615
1580.4409,1022.2092620117292
1582.2138,899.9517227661054
1583.986,799.3167193713925
1585.7575,766.354859092713
1587.5282,703.0667412020521
1589.2981,680.352957307834
1591.0673,556.4640919878439
1592.8358,582.2507230163355
1594.6035,585.4634226029411
1596.3704,549.7027571347971
1598.1366,607.6692871444102
1599.9021,595.0135676672835
1601.6668,595.7861476622274
1603.4308,661.5875701379373
1605.194,732.7183721452639
1606.9564,891.3290841191883
1608.7182,1020.9202291675283
1610.4791,1076.192321484803
1612.2394,1196.845865056348
1613.9988,1435.5813531055792
1615.7576,1638.649266887467
1617.5156,1911.1000733011824
1619.2728,2138.034222859431
1621.0293,2354.152146963934
1622.785,2419.054255636089
1624.54,2355.4409353557967
1626.2942,2312.4125484124015
1628.0477,1991.6694335408538
1629.8005,1811.2619063519815
1631.5525,1612.6902625399416
1633.3037,1397.00477968626
1635.0542,1309.5057192455934
1636.804,1173.943328702535
1638.553,1093.5678424466423
1640.3013,1035.6294831280393
1642.0488,1043.3784624612017
1643.7955,1026.2149818043144
1645.5416,1045.9892320817708
1647.2868,1154.7013939558274
1649.0313,1205.2016376288702
1650.7751,1358.9901217562692
1652.5181,1558.7669929413933
1654.2604,1705.8823841977137
1656.0019,2018.1864129510577
1657.7427,2406.1791795684258
1659.4828,2757.86076423496
1661.222,2992.9312230740215
1662.9606,3083.1905846303853
1664.6984,2996.6888475195083
1666.4354,2724.775979524944
1668.1717,2303.1019184633806
1669.9072,1868.9165749037493
1671.642,1521.619836383994
1673.3761,1278.8615717528846
1675.1094,1074.241634643011
1676.8419,842.2098658983632
1678.5737,714.6160956205058
1680.3048,597.4601454889271
1682.0351,506.291830036982
1683.7646,431.31095782342527
1685.4934,392.0673323441006
1687.2215,370.3607527817585
1688.9488,331.29101439848455
1690.6754,270.75790875277744
1692.4012,337.96122409022064
1694.1263,268.3007459488399
1695.8506,299.7262564870616
1697.5742,258.13753518031444
1699.297,253.78435850676033
1701.0191,185.46650036319625
1702.7404,171.48373210858335
1704.461,120.38582324720846
1706.1808,102.82254156853742
1707.8999,80.09365365818303
1709.6182,91.24892507354889
1711.3358,90.33812057109753
1713.0527,43.41100399481729
1714.7688,15.317338285327423
1716.4841,36.80688594915409
1718.1987,78.7794093396551
1719.9126,65.08467044212739
1721.6257,45.172430454094865
1723.338,41.14244992224121
1725.0496,14.594488941525924
1726.7605,5.828307195515663
1728.4706,8.793664221830113
1730.18,-46.30968050018055
1731.8886,-20.731967579104094
1733.5964,-13.822974989820068
1735.3036,-7.332273594867729
1737.0099,-5.359296165264823
1738.7156,35.99659777737543
1740.4204,-20.363897749200987
1742.1246,20.50991091279502
1743.8279,29.51892085648069
1745.5306,44.114028969881474
1747.2325,9.446131845859782
1748.9336,-10.533874363871291
1750.634,-1.0750936020231165
1752.3336,4.323475422082993
1754.0325,50.662844739305
1755.7307,62.69402633727077
1757.4281,94.66803169697232
1759.1247,107.43587167249643
1760.8206,97.59855617124776
1762.5158,141.3070940262769
1764.2102,102.9124930946382
1765.9039,114.6657598203492
1767.5968,95.66789961828181
1769.289,129.7199167566614
1770.9804,150.67281454703334
1772.6711,163.67759500375178
1774.361,146.23525863446048
1776.0502,180.39680431004308
1777.7386,205.96322943904124
1779.4263,194.48552962603753
1781.1132,219.9646984160081
1782.7994,155.75172740906964
1784.4849,207.99760600571062
1786.1696,201.80332204893784
1787.8535,219.76986130177465
1789.5367,243.19820750921826
1791.2192,254.53934221856434
1792.9009,196.7942445451372
1794.5818,242.66389105888447
1796.2621,244.34925636180924
1797.9415,230.85131262928735
1799.6202,220.62102959321783
1801.2982,285.7093746769933
1802.9755,210.8673130977968
1804.6519,259.7458072157315
1806.3277,256.6458172822149
1808.0027,246.96830095121913
1809.6769,278.7642133102672
1811.3504,270.2345069772018
1813.0231,269.28013178222864
1814.6951,287.5020348532089
1816.3664,346.90116062522065
1818.0369,354.2784506583266
1819.7067,326.68484304358753
1821.3757,343.52127232928615
1823.044,345.8386697968599
1824.7115,377.4879632925604
1826.3783,327.22007720426336
1828.0443,338.6359321449672
1829.7096,358.68644545547795
1831.3741,401.5725310902599
1833.0379,390.7950994169114
1834.701,389.4550567873266
1836.3633,392.5533056454642
1838.0248,403.14074454072943
1839.6856,379.1182680970087
1841.3457,433.4367669067851
1843.005,442.8471277713543
1844.6636,438.5002331576525
1846.3214,464.7969611041517
1847.9785,497.98818526432115
1849.6349,472.6747746436704
1851.2904,515.5575932678348
1852.9453,526.037500435712
1854.5994,498.31535029062616
1856.2528,552.9419917155446
1857.9054,568.618268610282
1859.5572,592.3950193452347
1861.2083,576.073076604629
1862.8587,613.1032671487392
1864.5084,640.5864119771086
1866.1572,557.0233259582619
1867.8054,555.0648175548449
1869.4528,576.5616896592965
1871.0994,590.3147396134118
1872.7453,621.324758993378
1874.3905,587.7425334722466
1876.0349,569.3188425098251
1877.6786,598.8544596884913
1879.3215,651.3501528974484
1880.9637,644.1066840373496
1882.6051,668.4248084953615
1884.2458,663.005275217587
1885.8858,636.4488264658758
1887.525,627.9561978720412
1889.1634,630.5781187034117
1890.8011,649.5153119477491
1892.4381,617.6684942870561
1894.0743,646.8383759081917
1895.7098,672.4256608213345
1897.3446,663.0310465682942
1898.9786,669.6552239666162
1900.6118,665.8488772035453
1902.2443,631.512683769799
1903.8761,640.9473144976037
1905.5071,613.4034339040718
1907.1374,615.1817000968476
1908.7669,640.5827650495448
1910.3957,613.9572745839705
1912.0237,566.3558681161085
1913.651,599.2791789223775
1915.2776,640.1778346156425
1916.9034,623.2524568159824
1918.5285,577.5036607417169
1920.1528,528.4820553786321
1921.7764,562.2882439374898
1923.3992,568.3728243442365
1925.0213,486.03638890193724
1926.6427,501.4295242299304
1928.2633,498.40281208718807
1929.8832,560.6068292184173
1931.5023,517.0421473842835
1933.1207,519.4593327393923
1934.7383,535.208946267936
1936.3552,505.7415437595191
1937.9714,492.00767565165734
1939.5868,498.1078873244587
1941.2015,465.09271923796587
1942.8154,449.4127068711514
1944.4286,436.618381052067
1946.041,411.41026811465235
1947.6528,387.48889002667056
1949.2637,391.3547646417919
1950.8739,384.45840593880166
1952.4834,380.45032398293915
1954.0921,417.73102499485867
1955.7001,405.75101139072467
1957.3074,404.3107814094001
1958.9139,358.96082923224094
1960.5197,356.35164499751045
1962.1247,358.2337152538548
1963.729,330.5075229864178
1965.3325,302.87354759800655
1966.9353,307.03226518635165
1968.5374,322.08414882045145
1970.1387,332.4796684989833
1971.7393,301.66929099978734
1973.3392,289.2534797759199
1974.9383,295.43269526374206
1976.5366,244.20739500708805
1978.1342,287.2280335954674
1979.7311,270.5450631763197
1981.3273,271.60893302480144
1982.9227,286.0200897106206
1984.5173,273.72897708739765
1986.1112,237.63603614856038
1987.7044,241.94170515025507
1989.2968,240.2964199722628
1990.8885,259.05061407496214
1992.4795,243.50471851576185
1994.0697,253.8591617615857
1995.6592,235.36436984430475
1997.2479,231.77076625721202
1998.8359,237.3787721399549
2000.4232,224.5388063144801
2002.0097,198.10128522894775
2003.5955,194.61662308613813
2005.1805,233.23523210781968
2006.7648,244.8575225696095
2008.3484,203.5839024147699
2009.9312,261.8647771379983
2011.5133,238.55055019815518
2013.0946,242.69162243546089
2014.6752,237.3883923046269
2016.2551,221.8912558334614
2017.8342,236.7506066758924
2019.4126,218.31683626694576
2020.9902,194.34033367414486
2022.5672,205.17148578184424
2024.1433,188.41067753099924
2025.7188,192.458291810859
2027.2935,202.0647096265766
2028.8674,207.13031005871744
2030.4406,201.0554701672154
2032.0131,173.84056494071046
2033.5849,166.03596735728388
2035.1559,203.79204865661814
2036.7261,219.75917841804403
2038.2957,224.18772418296976
2039.8645,216.47805129521112
2041.4325,197.58052285671147
2042.9998,183.89549980463016
2044.5664,201.92334110033153
2046.1323,250.06440386622853
2047.6974,210.81904320549802
2049.2617,184.98761172068043
2050.8254,193.7204599061315
2052.3883,231.21793640633405
2053.9504,221.28038792857114
2055.5118,213.6581588679528
2057.0725,204.5515914067928
2058.6325,211.51102559081846
2060.1917,189.98679942024683
2061.7502,221.77924878019257
2063.3079,200.28870765590545
2064.8649,186.96550781484802
2066.4212,177.45997902159797
2067.9767,202.87244917109274
2069.5315,164.0032443836717
2071.0856,165.7026887509528
2072.6389,165.47110472452914
2074.1915,135.15881309897122
2075.7433,122.41613301414327
2077.2945,143.59338225832653
2078.8448,137.5408773956442
2080.3945,112.00893355428889
2081.9434,161.64786448705854
2083.4916,169.10798282665928
2085.039,144.6395995893272
2086.5857,141.89302410021992
2088.1317,156.91856423810168
2089.677,149.06652646281327
2091.2215,149.58721566500935
2092.7652,120.28093524469114
2094.3083,148.79798710598516
2095.8506,162.08867195021776
2097.3921,195.5532889907263
2098.933,178.29213581996555
2100.4731,190.50550807486798
2102.0124,205.79369960944496
2103.5511,191.35700237265883
2105.089,190.0457062555397
2106.6261,208.01009923554557
2108.1626,197.20046738968267
2109.6983,192.91709471485956
2111.2332,189.1602632359827
2112.7675,185.7802530487843
2114.301,196.82734235739917
2115.8337,196.00180750817162
2117.3657,232.15392287916438
2118.897,213.9839608884413
2120.4276,204.89219163252528
2121.9575,164.4788830681082
2123.4866,226.39430110296962
2125.0149,224.18871000009494
2126.5426,179.8123717585313
2128.0695,171.76554613544795
2129.5956,209.99849108988928
2131.1211,191.71146286325165
2132.6458,211.2047155969467
2134.1698,222.32850151527782
2135.693,192.93307073050892
2137.2155,220.41867113161334
2138.7373,228.88554867823768
2140.2584,224.38394712585068
2141.7787,231.66410794106378
2143.2983,215.17627034665475
2144.8171,185.92067124876303
2146.3353,184.89754540177
2147.8527,190.10712570085343
2149.3693,194.79964319221745
2150.8853,195.22532702099943
2152.4005,173.5844043843481
2153.9149,209.67710052715756
2155.4287,152.20363895848186
2156.9417,227.01424109060554
2158.454,178.95912681377558
2159.9655,191.68851374810856
2161.4764,206.25261772412978
2162.9865,200.25165265548458
2164.4958,187.48583039329787
2166.0045,204.2553607861828
2167.5124,201.41045180789843
2169.0195,200.40130938965376
2170.526,207.9281374485572
2172.0317,210.59113789770527
2173.5367,216.29051057091783
2175.0409,211.87645319610874
2176.5445,231.04916133829283
2178.0473,211.8588284437219
2179.5494,197.3556456481556
2181.0507,181.9398019687751
2182.5513,188.76148444921
2184.0512,178.22087831369663
2185.5504,188.46816689886236
2187.0488,168.80353175912933
2188.5465,180.72715256424544
2190.0435,185.339207295925
2191.5397,163.18987212861248
2193.0353,179.37932138336782
2194.5301,157.20772774935176
2196.0241,158.92526212194207
2197.5175,155.43209382444002
2199.0101,164.82839059089747
2200.502,125.96431860104894
2201.9931,147.9900423863437
2203.4835,126.85572521858921
2204.9733,122.611528889689
2206.4622,160.20761392299482
2207.9505,136.59413961575137
2209.438,93.7212636631375
2210.9248,106.68914239439255
2212.4109,129.497931201553
2213.8962,133.7977844097568
2215.3809,143.08885504916998
2216.8648,163.221294811985
2218.3479,140.04525395950168
2219.8304,110.01088112081106
2221.3121,112.71832352455385
2222.7931,106.51772729926415
2224.2733,100.65923744629981
2225.7529,87.59299790184195
2227.2317,91.26915159547934
2228.7098,110.98784058087858
2230.1872,80.74920599901543
2231.6638,119.50338788098816
2233.1397,106.10052545040526
2234.6149,98.0407567358443
2236.0894,89.5742187048827
2237.5632,81.05104734469478
2239.0362,63.371377746712824
2240.5085,84.53534419186235
2241.9801,74.09308032735862
2243.4509,81.34471895506795
2244.921,85.94039213592714
2246.3904,56.88023111742859
2247.8591,52.36436628766296
2249.3271,68.1929274659251
2250.7943,56.06604394786609
2252.2608,34.6338443472132
2253.7266,56.39645671703056
2255.1917,58.10400876404492
2256.656,60.85662763102118
2258.1197,63.05443987968556
2259.5826,44.39757146319698
2261.0447,64.28614770417516
2262.5062,69.12029348126725
2263.9669,78.05013303026408
2265.4269,71.0757898957545
2266.8862,87.99738684183012
2268.3448,83.0150459218221
2269.8026,88.97888830909596
2271.2598,84.88903434687018
2272.7162,75.44560348857522
2274.1719,81.84871433875378
2275.6268,94.14848474749124
2277.0811,100.2450317463954
2278.5346,97.1384714255937
2279.9874,111.27891887276473
2281.4395,114.7164882042116
2282.8908,96.65129242344483
2284.3414,103.68344338681072
2285.7914,97.61305198414539
2287.2406,114.04022806845114
2288.689,107.71508051660385
2290.1368,96.93771706507778
2291.5838,79.55824437320825
2293.0302,95.8267681309535
2294.4758,91.34339323268705
2295.9206,103.70822361452701
2297.3648,109.12136229915541
2298.8082,112.73291127217908
2300.251,110.34297142799824
2301.693,88.65164253368584
2303.1343,113.50902325288371
2304.5748,89.71521136272167
2306.0147,98.920303505236
2307.4538,95.77439542531374
2308.8922,117.92758187863637
2310.3299,115.87995666314328
2311.7669,99.53161239750534
2313.2031,65.3326405416019
2314.6387,93.88313155999822
2316.0735,87.78317526393585
2317.5076,79.08286052582844
2318.941,92.1822753402621
2320.3737,103.48150691099454
2321.8056,111.73064151996005
2323.2369,91.72976441428546
2324.6674,92.57895972378992
2326.0972,102.27831066099043
2327.5263,84.0778995126102
2328.9547,104.42780754259275
2330.3823,89.12811517410137
2331.8092,85.32890178603247
2333.2355,89.38024586599568
2334.661,100.73222504832029
2336.0858,97.18491607353917
2337.5098,113.73839467486141
2338.9332,118.44273561364753
2340.3558,120.5480125138738
2341.7778,104.40429781509192
2343.199,101.71166275137512
2344.6195,121.02017751275434
2346.0393,119.22991127215573
2347.4583,118.64093199229956
2348.8767,121.20330644361275
2350.2943,129.96710021011404
2351.7113,132.98237766379316
2353.1275,130.3492018769657
2354.543,115.81763459212198
2355.9578,124.73773624826845
2357.3718,94.95956612623013
2358.7852,100.73318225945422
2360.1978,103.95864173179143
2361.6098,122.78600061976613
2363.021,109.86531396030841
2364.4315,108.84663556250234
2365.8413,116.78001813677565
2367.2504,91.2655133050921
2368.6587,85.6031715216177
2370.0664,81.4430423278709
2371.4733,78.23517440933665
2372.8795,105.77961563707777
2374.285,77.57641309980045
2375.6899,55.975612828426165
2377.0939,49.727260078123436
2378.4973,69.78139954430571
2379.9,61.53807542512459
2381.3019,63.74733122091675
2382.7032,76.05920981663348
2384.1037,73.82375345976834
2385.5035,70.29100363722318
2386.9027,71.31100109767249
2388.3011,74.03378588687065
2389.6987,80.20939733746582
2391.0957,71.78787404177092
2392.492,50.31925379000586
2393.8876,40.45357365451309
2395.2824,48.290870204451494
2396.6765,31.88117960443924
2398.07,26.52453753618738
2399.4627,55.62097936258942
2400.8547,49.320540181293836
2402.246,38.77325453375124
2403.6366,26.479156468206384
2405.0265,9.688279645184593
2406.4156,12.400657460418188
2407.8041,10.916323212768475
2409.1918,24.58531007709098
2410.5789,15.207651119079856
2411.9652,33.03337915857446
2413.3508,20.062526863336643
2414.7358,32.14512657080013
2416.12,10.781210417771945
2417.5035,37.620810219610576
2418.8863,28.163957683864282
2420.2684,36.810684141875754
2421.6497,0.011020643351002946
2423.0304,11.664997869889703
2424.4104,22.822646392994102
2425.7896,2.083996667520296
2427.1682,6.899078920099782
2428.546,-4.382076643472828
2429.9232,5.590560113608262
2431.2996,14.717063105097623
2432.6753,6.247506188840816
2434.0503,16.23196307552098
2435.4246,12.92050741334424
2436.7982,17.36321268820211
2438.1711,7.060152256782203
2439.5433,9.411399302141945
2440.9148,9.56702693673833
2442.2856,4.477108178913568
2443.6557,14.64171595134303
2445.025,19.71092313193276
2446.3937,32.08480245217561
2447.7617,30.363426446454014
2449.1289,6.446867328306325
2450.4955,11.03519700763627
2451.8613,32.17848732988023
2453.2265,16.226810030124398
2454.5909,20.780236521673487
2455.9546,36.488838055563974
2457.3177,35.452685675035355
2458.68,39.92185005844067
2460.0416,52.74640152960774
2461.4025,58.42641001314905
2462.7627,48.26194490621265
2464.1222,41.65307502168298
2465.4811,49.19986868982642
2466.8392,40.20239382438103
2468.1966,43.960717847087835
2469.5533,54.37490777766561
2470.9093,82.0450301962278
2472.2645,66.37115113914115
2473.6191,67.70333582232433
2474.973,58.541648797983726
2476.3262,40.386153941295106
2477.6787,56.786914542020895
2479.0305,37.14399348606412
2480.3816,46.857453091459774
2481.7319,43.72735530480304
2483.0816,54.5037616041177
2484.4306,42.4367330301543
2485.7789,37.52633007862869
2487.1264,33.52261282088966
2488.4733,33.42564095302487
2489.8195,33.78547383589648
2491.165,29.902170496110557
2492.5097,27.47578962242187
2493.8538,25.0063896045649
2495.1972,12.294028557519596
2496.5398,8.788764346203152
2497.8818,27.290654712594915
2499.2231,26.34975731078839
2500.5637,34.71612952197029
2501.9035,13.439828463834601
2503.2427,18.220910906911286
2504.5812,30.259433487335173
2505.919,33.35545265903238
2507.256,42.909024573335955
2508.5924,44.57020504802813
2509.9281,42.2390494718029
2511.2631,30.865612787653845
2512.5974,29.149949516186553
2513.9309,29.692113869352852
2515.2638,30.692159767605972
2516.596,34.05014083447941
2517.9275,13.516110386587115
2519.2583,26.5901214000437
2520.5884,19.472226715803572
2521.9178,21.26247890892273
2523.2465,38.76093035973554
2524.5745,26.517633235951507
2525.9018,21.03263931767424
2527.2284,18.806000119833698
2528.5543,34.787766947035834
2529.8796,40.42799091582947
2531.2041,24.276722794887064
2532.5279,47.93401294860314
2533.851,45.39991149860634
2535.1735,46.72446808718769
2536.4952,45.55773190263881
2537.8163,48.299751666006614
2539.1366,41.75057564276403
2540.4562,40.26025161538473
2541.7752,36.92882694883929
2543.0935,53.206348605496714
2544.411,52.84286317844135
2545.7279,85.53841672869339
2547.0441,70.04305478884999
2548.3596,76.50682203612541
2549.6744,78.77976244730507
2550.9885,77.61191923410888
2552.3019,75.3533348204619
2553.6146,71.75405085416969
2554.9266,66.11410822950484
2556.2379,70.23354712320088
2557.5485,75.81240705084883
2558.8585,74.25072682570499
2560.1677,87.19854450290313
2561.4762,85.20589739507204
2562.7841,85.82282194285654
2564.0913,103.29935373484477
2565.3977,100.63552750140025
2566.7035,101.5813769398892
2568.0086,90.58693474132542
2569.313,106.25223258091046
2570.6167,100.62730122797711
2571.9197,108.2121703893381
2573.222,101.05686876553409
2574.5236,121.36142397498497
2575.8246,105.07586262554287
2577.1248,106.80021011144481
2578.4244,124.28449077616915
2579.7232,131.52872789519324
2581.0214,126.43294350115002
2582.3189,140.49715831138565
2583.6157,141.17139177891704
2584.9118,164.20566195179117
2586.2072,156.24998546634242
2587.5019,132.55437731685106
2588.7959,142.81885093510118
2590.0893,149.94341842733138
2591.3819,158.028090471596
2592.6739,153.92287624651317
2593.9652,151.97778335042176
2595.2557,150.5928178424365
2596.5456,155.06798426189425
2597.8348,161.55328564220508
2599.1234,168.29872346609818
2600.4112,161.3542976007725
2601.6983,160.27000623043978
2602.9848,181.84584592576948
2604.2705,161.63181165473088
2605.5556,164.87789656683663
2606.84,162.2840921952843
2608.1237,166.85038842449148
2609.4067,166.07677351603934
2610.689,155.1632340630067
2611.9707,159.6097549977071
2613.2516,169.66631970082062
2614.5319,153.3329099569305
2615.8115,149.8595058539595
2617.0903,150.24608594650272
2618.3685,147.69262729056254
2619.6461,153.4991054396819
2620.9229,150.36549447047946
2622.199,144.5417669245826
2623.4745,152.1278938399646
2624.7493,163.02384480917954
2626.0234,154.42958790350622
2627.2968,144.74508956398404
2628.5695,154.02031468735913
2629.8415,151.5552267229291
2631.1128,128.39978757979043
2632.3835,136.9539576514885
2633.6535,139.21769604757264
2634.9228,147.94096050805274
2636.1914,140.2237073807628
2637.4593,120.7158915341297
2638.7265,141.1674664343459
2639.9931,142.22838434044388
2641.259,148.24859609978603
2642.5242,143.22805113744926
2643.7887,127.81669739602512
2645.0525,145.61448138582728
2646.3156,141.47134833900327
2647.5781,141.73724203155462
2648.8398,134.0621048247731
2650.1009,121.39587766257955
2651.3613,143.3885001482745
2652.6211,131.48991067120141
2653.8801,139.25004618682078
2655.1385,136.9688423356979
2656.3961,132.39623336590194
2657.6531,145.13215215581386
2658.9094,134.326530259852
2660.1651,138.8292977811161
2661.42,142.59038347944033
2662.6743,160.65971472636738
2663.9279,169.38721746753754
2665.1808,155.72281604199497
2666.433,160.41643309491292
2667.6846,158.76798971423977
2668.9354,154.12740538376056
2670.1856,165.54459799958067
2671.4351,179.66948391653523
2672.6839,174.65197783401254
2673.9321,180.29199265470925
2675.1795,180.48943953480193
2676.4263,172.54422782754818
2677.6724,176.35626508131327
2678.9179,179.72545711902148
2680.1626,174.8017080000368
2681.4067,174.48491998646705
2682.6501,175.974993592406
2683.8928,179.37182758709764
2685.1348,170.4753189800383
2686.3761,159.78536298700715
2687.6168,161.55185311903142
2688.8568,170.27468128928626
2690.0961,160.30373779542947
2691.3348,163.38891123237067
2692.5727,148.7800885919828
2693.81,148.97715523225247
2695.0466,153.07999502336497
2696.2826,151.43849034573532
2697.5178,157.4025220489798
2698.7524,146.42196946832996
2699.9863,153.94671036499585
2701.2195,165.37662103597017
2702.452,153.66157623877848
2703.6839,169.90144907718218
2704.9151,165.4461111183275
2706.1456,165.19543223034702
2707.3755,177.64928062691274
2708.6046,178.65752286974157
2709.8331,181.67002374406047
2711.0609,193.63664624851958
2712.2881,198.6572515650721
2713.5145,219.0816989393038
2714.7403,204.4598456302299
2715.9654,229.0415467060493
2717.1899,225.67665519036336
2718.4136,243.11502181635888
2719.6367,253.9564950604588
2720.8591,247.25092096793742
2722.0809,268.2481430445048
2723.3019,278.09800232336215
2724.5223,278.4503371552314
2725.7421,285.6049831098535
2726.9611,276.01177297246704
2728.1795,274.62053667226064
2729.3972,262.831101378305
2730.6142,257.2432915134659
2731.8306,244.90692887229898
2733.0462,227.52183267692863
2734.2612,209.1378197004085
2735.4756,195.15470444057541
2736.6892,178.2722993038892
2737.9022,169.6904147452649
2739.1145,147.4588594368945
2740.3262,138.3774403540674
2741.5372,125.79596299748573
2742.7475,115.5142314840773
2743.9571,104.23204867281174
2745.1661,100.6492162675172
2746.3744,92.06553492970284
2747.582,83.23080431438575
2748.7889,78.3448231559289
2749.9952,69.4573893563877
2751.2008,54.96830003437003
2752.4057,48.027351613910696
2753.61,51.58433996936333
2754.8136,38.739060494807745
2756.0165,46.84130806848157
2757.2188,30.640877181232554
2758.4204,36.437561855497506
2759.6213,25.431155807303867
2760.8215,32.52145238830394
2762.0211,40.95824469584045
2763.22,37.441325502042446
2764.4182,25.820487169456328
2765.6158,18.245521686217444
2766.8127,23.216220782257096
2768.009,16.482376005051947
2769.2045,19.443778669917037
2770.3994,11.350219927344597
2771.5936,5.701490733388937
2772.7872,-18.40261806939725
2773.9801,-11.562315695476855
2775.1723,-14.977627517158226
2776.3639,-2.1484633992163253
2777.5548,-24.374583579927958
2778.745,-15.805726834420966
2779.9346,-1.6913884357354618
2781.1235,-16.380905757701612
2782.3117,-13.37359927717921
2783.4992,-6.0686258257806
2784.6861,-12.6650086328616
2785.8723,-15.41171030220653
2787.0579,4.642433085834909
2788.2428,1.298739413899284
2789.427,12.508526518199687
2790.6106,3.1231122219624012
2791.7935,15.743814223329537
2792.9757,17.721950189213885
2794.1573,22.608837629090885
2795.3382,40.35579387521807
2796.5184,42.764136033765
2797.698,72.43518080734361
2798.8769,80.17024447092558
2800.0551,91.57064257513116
2801.2327,101.63768986887976
2802.4096,117.57270018538361
2803.5859,136.5269863414792
2804.7615,148.8518599782767
2805.9364,168.34863137161938
2807.1106,191.41860930883036
2808.2842,224.4131008937468
2809.4572,261.4334113160214
2810.6294,279.9808435211744
2811.801,322.85669784039646
2812.972,355.2122718050682
2814.1423,395.89885971800595
2815.3119,439.06775232990185
2816.4808,476.1702364324599
2817.6491,528.7575944267066
2818.8167,570.8311039519681
2819.9837,595.2420373599953
2821.15,648.3916612942339
2822.3157,694.8312364457088
2823.4807,727.0120170215303
2824.645,782.935250280497
2825.8086,809.6521762112873
2826.9716,850.014026973231
2828.134,889.4220266291345
2829.2957,928.2773907416661
2830.4567,952.8813259792748
2831.617,964.8850297276372
2832.7767,977.889689843616
2833.9358,973.3964845352255
2835.0941,976.1065822315829
2836.2519,977.5711416278398
2837.4089,947.7913116580839
2838.5653,939.5682314806904
2839.7211,928.403030776122
2840.8761,937.84682982916
2842.0306,958.7007396405565
2843.1843,997.7158618325955
2844.3374,1044.9432884405555
2845.4899,1092.0841015225571
2846.6417,1148.5893726872891
2847.7928,1238.5601626226005
2848.9433,1289.497520530448
2850.0931,1377.5024832271865
2851.2422,1446.3760746341966
2852.3907,1530.0193048978363
2853.5385,1578.1331697007013
2854.6857,1633.5186494251964
2855.8323,1691.426708672394
2856.9781,1736.3582957081817
2858.1233,1777.2643418841803
2859.2679,1820.6457611884307
2860.4118,1853.7034498363303
2861.555,1883.4882858368192
2862.6976,1930.2511286618055
2863.8395,1958.092818948315
2864.9808,1975.8641780308615
2866.1214,2002.8660076630324
2867.2614,2006.1990898397744
2868.4007,2012.6641865273737
2869.5393,2034.2620396301256
2870.6773,2035.2933709256854
2871.8146,2038.0088818490879
2872.9513,2042.3592534824352
2874.0874,2037.0951465277412
2875.2227,2033.2672012634282
2876.3574,2015.5260375969683
2877.4915,1987.2222551031625
2878.6249,1958.2564332015515
2879.7577,1948.729131439455
2880.8898,1910.7408897816279
2882.0212,1893.6422287055354
2883.152,1892.9836495812347
2884.2821,1869.1656348423612
2885.4116,1858.888647992713
2886.5405,1881.6531338444347
2887.6686,1878.1095186207838
2888.7962,1888.2582097284885
2889.923,1906.1495957931832
2891.0493,1911.0340465579209
2892.1748,1916.9119127042577
2893.2997,1918.5835258034115
2894.424,1933.3491982574812
2895.5476,1952.3092232827328
2896.6706,1968.413874761939
2897.7929,1994.5134070547829
2898.9145,2006.0080548368085
2900.0355,2029.0980328384273
2901.1559,2080.033535729971
2902.2756,2122.6647378907896
2903.3946,2144.591792899902
2904.513,2172.1648331096776
2905.6308,2199.93396942657
2906.7479,2205.8992910353845
2907.8643,2232.5608651215875
2908.9801,2253.7187368116524
2910.0953,2251.272928906446
2911.2098,2250.9234416696454
2912.3236,2265.6202528521994
2913.4368,2247.1133176958247
2914.5494,2222.952568786034
2915.6613,2203.9879162372094
2916.7725,2173.069247934207
2917.8831,2161.7964297220055
2918.9931,2113.5193057148927
2920.1024,2092.1376984091935
2921.211,2097.3514091660386
2922.319,2059.110218425183
2923.4264,2060.6138856528687
2924.5331,2047.7121497242351
2925.6391,2016.1547289082846
2926.7445,2003.9913209968963
2927.8493,2020.2716036204029
2928.9534,1993.1452343692245
2930.0569,1989.5118506310662
2931.1597,1986.921069862181
2932.2619,1995.622489623705
2933.3634,1991.5156876075653
2934.4643,1972.1002215494625
2935.5645,1957.1756292699426
2936.6641,1931.1914288685502
2937.763,1902.3971188730725
2938.8613,1858.942178499385
2939.959,1802.9260679393913
2941.056,1732.3982287955748
2942.1523,1662.458084641157
2943.248,1585.7550417253774
2944.3431,1504.8384896728958
2945.4375,1404.0578022508225
2946.5313,1298.7123381778836
2947.6244,1208.4514421322272
2948.7169,1114.7744458048776
2949.8087,1023.6306688023462
2950.8999,935.3694195833996
2951.9904,864.3899963704966
2953.0803,807.8916880324039
2954.1696,737.4737747939873
2955.2582,691.5855288011974
2956.3462,645.8762148252465
2957.4335,617.0450907214927
2958.5202,583.0414078865329
2959.6062,564.6644115465135
2960.6916,533.7133410971662
2961.7764,519.3374302875793
2962.8605,494.8359075297085
2963.9439,504.45799604213494
2965.0267,493.7029140950817
2966.1089,490.8198749141925
2967.1905,483.45808678808226
2968.2714,487.01675309716757
2969.3516,480.8950723872854
2970.4312,486.9422383341041
2971.5102,489.65743980434286
2972.5885,483.1398607952988
2973.6662,503.13868040769626
2974.7432,494.00307291086074
2975.8196,503.0822075427318
2976.8954,495.2752486012191
2977.9705,471.8313553534106
2979.045,476.29968211364235
2980.1188,469.1793784779379
2981.192,451.01958927932424
2982.2645,449.6194546590348
2983.3364,422.72811024810835
2984.4077,398.2946871813906
2985.4783,371.1683123664459
2986.5483,338.9481087278932
2987.6177,310.7331954786689
2988.6864,283.9226884422278
2989.7545,250.46570033469425
2990.8219,228.71134103296595
2991.8887,198.85871790928468
2992.9548,174.4069360487788
2994.0204,148.3050985479897
2995.0852,128.60230675938942
2996.1495,115.74766055239911
2997.2131,83.04025851041933
2998.276,68.57919805937308
2999.3383,55.56357579478231
3000.4,39.49248762637728
3001.4611,41.31502890825254
3002.5215,17.530294599578724
3003.5812,8.987379246376918
3004.6404,6.735377219365205
3005.6989,3.273382799388287
3006.7567,-4.3495098000627195
3007.8139,-4.88420639823039
3008.8705,-11.581569362754863
3009.9264,-17.242412268054636
3010.9818,-11.867432988671226
3012.0364,-6.507157147448424
3013.0905,-10.161991811574353
3014.1439,-10.932279041737615
3015.1966,0.08174061967031321
3016.2487,-3.970064156274475
3017.3002,-2.7378246993130233
3018.3511,6.128367321754013
3019.4013,10.178447588994231
3020.4509,9.312351723191341
3021.4998,14.680015243345679
3022.5481,25.13137357533401
3023.5958,21.616361998233515
3024.6428,22.834915539808094
3025.6892,35.98696901165829
3026.735,40.37245699703601
3027.7802,43.141313719323875
3028.8247,55.743472998181005
3029.8685,56.02886822185337
3030.9118,65.54743222115258
3031.9544,76.49909726660167
3032.9963,81.98379497325118
3034.0376,79.10145619115963
3035.0783,94.75201095054854
3036.1184,100.43538849062452
3037.1578,117.2015171030746
3038.1966,113.9503240752324
3039.2348,111.38173552241665
3040.2723,133.89567642044358
3041.3092,126.44207063131216
3042.3455,129.82084067806477
3043.3811,125.48190781932351
3044.4161,128.82519201550167
3045.4505,124.55061197219436
3046.4842,127.75808510674437
3047.5173,116.29752759098926
3048.5498,120.71885431918611
3049.5816,116.37197902261687
3050.6128,130.45681422537564
3051.6434,124.72327128783695
3052.6734,109.07126026580715
3053.7027,111.70068996786028
3054.7314,107.91146811185854
3055.7594,106.90350129865726
3056.7868,110.3766950499978
3057.8136,98.68095381858643
3058.8398,100.11618095336303
3059.8653,96.58227881645792
3060.8902,102.3291487688407
3061.9145,95.75669120565806
3062.9381,97.41480549876565
3063.9612,93.25339006245201
3064.9835,93.22234233685799
3066.0053,80.72155882959021
3067.0264,88.85093511603327
3068.0469,89.5603659643557
3069.0668,67.54974525421619
3070.086,77.01896596967026
3071.1046,66.46792041927586
3072.1226,63.746500141402066
3073.1399,59.9045960097385
3074.1567,55.842098260510056
3075.1727,50.50889653089587
3076.1882,43.154879899654475
3077.203,34.77993694045506
3078.2173,37.18395579541868
3079.2308,26.61682425886704
3080.2438,26.428429753282444
3081.2561,22.31865943498019
3082.2678,14.687400195990904
3083.2789,17.984538705159366
3084.2893,4.859961484456335
3085.2991,8.863554876007356
3086.3083,4.7952051733390135
3087.3169,3.3547985813426067
3088.3248,14.342221256958169
3089.3321,2.9073593235774524
3090.3388,5.600098761170557
3091.3449,-3.6796744793655307
3092.3503,-0.8320745031347769
3093.3551,0.1428213447067037
3094.3593,5.244944031426712
3095.3629,1.82422309750757
3096.3658,-0.7194119690173011
3097.3681,-3.886031698357044
3098.3698,-2.125699433795546
3099.3708,-2.3384396971604247
3100.3713,-4.274255774542155
3101.3711,-1.5331275910186832
3102.3702,-4.714992371852986
3103.3688,1.7802279736367268
3104.3667,3.402658638905905
3105.364,-1.4975752003919638
3106.3607,-4.27034840263002
3107.3568,1.83447913459446
3108.3522,4.6670901744645334
3109.347,6.377667461818589
3110.3412,7.816393694824228
3111.3348,-0.7665484921271855
3112.3277,6.6790234571918745
3113.32,12.653299756828346
3114.3117,7.30647055403864
3115.3028,9.088725869546977
3116.2932,8.20025565101264
3117.2831,14.741249755207832
3118.2723,17.46189795690219
3119.2608,14.662389883452818
3120.2488,10.492914987598056
3121.2361,16.153662575452813
3122.2229,19.744821848202946
3123.209,15.816581845498035
3124.1944,18.41913140953983
3125.1793,17.20265922436431
3126.1635,24.71735378981657
3127.1471,20.2134034337152
3128.1301,28.09099623670562
3129.1125,22.000320077299364
3130.0942,29.341562553098356
3131.0753,33.2149110417011
3132.0558,24.520552627289817
3133.0357,33.408674061897386
3134.015,32.12946185235103
3134.9936,33.183102171391624
3135.9716,32.16978087046567
3136.949,29.33968346918863
3137.9258,42.142995165478624
3138.902,42.67990086385697
3139.8775,41.10058504741551
3140.8524,37.20523177244729
3141.8267,41.44402468423954
3142.8004,49.267147056027625
3143.7735,47.724781746606595
3144.7459,49.967111122100164
3145.7178,48.09431707138435
3146.689,51.00658098366432
3147.6596,55.80408376720186
3148.6295,56.68700582019369
3149.5989,47.90552698279561
3150.5676,57.5098265282935
3151.5357,51.1000832509182
3152.5032,60.076475369802324
3153.4701,55.88918059307798
3154.4364,62.33837602811269
3155.402,64.1742382233823
3156.367,65.3969431039792
3157.3315,53.15666595325342
3158.2952,62.80358140058604
3159.2584,61.43786354379148
3160.221,66.85968585264848
3161.1829,66.46922118255742
3162.1442,74.8166417203218
3163.105,67.60211898805298
3164.065,70.52582375969615
3165.0245,67.68792613317547
3165.9834,71.58859550115662
3166.9416,74.2280005794263
3167.8993,74.80630936788529
3168.8563,68.57368912415436
3169.8127,74.28030635779135
3170.7684,79.82632689261743
3171.7236,76.41191580965096
3172.6782,80.33723739164694
3173.6321,86.1024551572414
3174.5854,80.90773182169809
3175.5381,83.25322923925623
3176.4902,86.78910845507775
3177.4417,83.36552968179248
3178.3926,90.33265226413894
3179.3428,93.19063471320061
3180.2924,93.73963463673434
3181.2415,92.82980871059081
3182.1899,94.86131267322446
3183.1377,92.73430133479147
3184.0848,97.54892855683522
3185.0314,94.30534727355607
3185.9773,96.65370944366501
3186.9227,97.14416608281999
3187.8674,102.42686724014169
3188.8115,101.25196199330941
3189.755,107.86959839573393
3190.6979,108.27992348830634
3191.6402,106.28308323322202
3192.5818,109.47922250987702
3193.5229,112.11848513483656
3194.4633,113.50101382987384
3195.4031,112.92695019557726
3196.3423,108.59643469752501
3197.2809,111.45960667202598
3198.2189,113.96660436942483
3199.1563,122.26756492547011
3200.0931,120.56262433624437
3201.0292,117.00191737515473
3201.9648,123.83557760998204
3202.8997,122.51373743848791
3203.834,120.93652802007836
3204.7677,124.254079289022
3205.7008,126.41651997022223
3206.6333,126.17397754604173
3207.5652,129.97657823467807
3208.4964,130.32444699258895
3209.4271,129.81770747646644
3210.3571,134.45648203975816
3211.2865,132.29089173773465
3212.2154,139.62105628110174
3213.1436,140.14709405765637
3214.0712,141.11912205898497
3214.9982,140.53725587520296
3215.9246,141.45160968523464
3216.8503,140.56229626263186
3217.7755,145.06942696643037
3218.7001,142.67311175004306
3219.624,147.97345911618848
3220.5473,149.12057614085407
3221.4701,146.91456842029288
3222.3922,154.35554005955214
3223.3137,155.04359369453354
3224.2346,155.77883041758335
3225.1549,156.66134977061196
3226.0746,157.64124973774148
3226.9937,160.56862673648072
3227.9121,154.64357560792575
3228.83,168.4661895874866
3229.7473,164.98656036413752
3230.6639,170.50477794219094
3231.5799,166.87093067609368
3232.4954,166.8851052152447
3233.4102,165.04738654033383
3234.3244,172.70785796319967
3235.238,174.5666011452072
3236.151,176.5736960206427
3237.0634,170.52922077812656
3237.9752,178.13325184054224
3238.8864,177.13586392548106
3239.797,183.28712996920171
3240.7069,181.13712113660432
3241.6163,186.28590675971782
3242.5251,178.58355435919975
3243.4332,184.98012959284873
3244.3408,183.17569633262787
3245.2477,189.17031660069887
3246.154,189.41405058746662
3247.0598,190.80695659163274
3247.9649,190.74909101775833
3248.8694,192.39050836233503
3249.7733,193.98126121436337
3250.6766,190.52140023893904
3251.5793,195.11097416134496
3252.4814,198.05002980165008
3253.3829,197.2886120288136
3254.2838,206.22676373129448
3255.1841,202.3145258246655
3256.0838,201.85193716223188
3256.9829,198.03903457415345
3257.8814,200.9758528720708
3258.7792,203.36242488723406
3259.6765,210.5987814411349
3260.5731,205.4849513216407
3261.4692,205.370961210631
3262.3647,203.35683573513586
3263.2595,200.89259746847563
3264.1538,204.0782669504024
3265.0474,207.56386271174216
3265.9404,209.04940124253824
3266.8329,207.98489695719542
3267.7247,208.87036217962435
3268.616,210.10580715388681
3269.5066,204.2412400353408
3270.3966,198.52666687828628
3271.286,202.66209169461084
