RamanShift,CorrectedData
30.1047,6836.061249948047
32.3739,6382.095619955721
34.6426,5936.129921602782
36.9109,5489.464022707662
39.1787,5043.147731727491
41.4461,4600.030802224757
43.7131,4160.7629373304735
45.9796,3716.393794175337
48.2456,3279.1729882824175
50.5112,2835.0000980108393
52.7764,2400.424668927999
55.0411,1963.2962182512904
57.3054,1520.8142391938586
59.5692,1090.178205335887
61.8326,659.6875750494155
64.0955,228.2417958047019
66.3579,-193.95969152487157
68.6199,-596.7174483483403
70.8815,-959.3800984174223
73.1426,-1211.6903042765264
75.4032,-1155.9311442628796
77.6634,-312.12359192757276
79.9231,2542.5229269304364
82.1824,9745.302104626871
84.4412,27857.307608052222
86.6995,55284.083006643974
88.9574,59426.07159126652
91.2148,58933.816099943426
93.4717,58456.05867643756
95.7282,57983.290875173625
97.9842,57514.703666015725
100.2398,57052.23743899506
102.4949,56583.18200899582
104.7495,56121.6266203798
107.0036,55662.459951676996
109.2573,55200.52012020114
111.5105,54740.64468664135
113.7632,54283.67065968159
116.0154,53812.584500599354
118.2672,53366.572127835425
120.5185,52906.61892170478
122.7693,52448.40972885666
125.0197,51995.57886687411
127.2696,51537.81012885609
129.519,51081.43678794576
131.7679,50628.74160190821
134.0163,50174.306817694145
136.2642,49722.56417596688
138.5117,49271.14491564667
140.7587,48825.07977842811
143.0052,48377.24901329438
145.2512,47935.73238097784
147.4967,47493.05915843838
149.7417,47047.35814327858
151.9863,46602.4576581704
154.2304,46159.23555531225
156.4739,45718.51922087798
158.717,45278.38557944907
160.9596,44840.161098421784
163.2017,44402.67179240859
165.4433,43970.943227620315
167.6844,43534.50052624109
169.925,43101.568370745605
172.1651,42677.62100826355
174.4047,42251.73225490897
176.6439,41821.525500019656
178.8825,41395.373710416105
181.1206,40968.64943470355
183.3582,40544.974807533494
185.5954,40120.921553870954
187.832,39702.7609932312
190.0681,39282.06404392032
192.3037,38868.4512272168
194.5388,38451.292671578514
196.7734,38033.158116778824
199.0075,37627.11691807819
201.2411,37219.43805040549
203.4742,36806.64011241848
205.7068,36406.74133058051
207.9389,36001.95956328859
210.1704,35603.762304872274
212.4015,35205.06668964161
214.632,34809.539495868965
216.862,34425.49714977611
219.0915,34041.10572948939
221.3205,33654.88096888023
223.549,33268.88826140899
225.777,32879.29266398721
228.0044,32491.458900837555
230.2314,32114.551367389806
232.4578,31734.58413415916
234.6837,31348.970950515308
236.909,30969.275248482132
239.1339,30560.610146593834
241.3582,30204.288453691857
243.582,29808.572673011615
245.8053,29451.675005745587
248.0281,29091.35735500056
250.2503,28724.131329366544
252.472,28356.10824652001
254.6932,27993.299136896137
256.9139,27639.414747369032
259.134,27275.31554487982
261.3536,26926.661719975506
263.5727,26571.763190449943
265.7912,26223.579604830404
268.0092,25873.82034592652
270.2267,25533.644534312167
272.4436,25189.761031823014
274.6601,24842.328444958308
276.8759,24509.955128319685
279.0913,24176.599188085514
281.3061,23839.068485334647
283.5204,23498.770639379938
285.7341,23163.563031143618
287.9473,22825.40280656018
290.16,22510.34687992854
292.3721,22192.50193729357
294.5837,21871.82443959674
296.7947,21553.770625854493
299.0052,21244.496516365107
301.2152,20921.40791588914
303.4246,20618.510416742254
305.6334,20311.60940202602
307.8418,19994.960048656954
310.0495,19692.917330435557
312.2568,19391.58602121275
314.4635,19087.970697910278
316.6696,18790.375743534067
318.8752,18488.65535021034
321.0802,18207.263522161586
323.2847,17905.354078723773
325.4887,17620.730657160268
327.692,17338.3967156809
329.8949,17053.455536288246
332.0972,16770.960227600895
334.2989,16489.213727702918
336.5001,16212.66880696878
338.7007,15940.628070880848
340.9008,15666.04396279477
343.1003,15392.068766659992
345.2992,15124.304609765531
347.4976,14859.003465479756
349.6955,14592.817155928009
351.8927,14334.847354645644
354.0895,14067.99558923985
356.2856,13818.763243969384
358.4812,13569.801562413078
360.6763,13321.261649962173
362.8707,13069.694476309902
365.0646,12820.350877936922
367.258,12579.331560626946
369.4508,12335.93710196024
371.643,12093.41795372375
373.8346,11861.774444345087
376.0257,11620.456781317684
378.2162,11391.065053517246
380.4062,11163.549233614918
382.5956,10932.459180371276
384.7844,10714.694640911395
386.9726,10489.255253035808
389.1603,10273.190547398117
391.3474,10013.299949759436
393.5339,9843.982783149004
395.7199,9633.838270463115
397.9052,9427.215536158204
400.09,9222.41360835237
402.2743,9016.331420891584
404.4579,8812.567815397699
406.641,8614.371543329296
408.8235,8416.041268019319
411.0054,8213.075566657033
413.1868,8019.422932271387
415.3675,7826.381775760565
417.5477,7640.7004278285385
419.7273,7451.077140915535
421.9064,7267.3600910547975
424.0848,7085.547379768803
426.2627,6899.8370359064575
428.4399,6724.8770174612
430.6166,6548.06521342809
432.7928,6374.049445553472
434.9683,6211.42747010303
437.1432,6041.796979602019
439.3176,5880.10560446146
441.4914,5718.350914674433
443.6645,5552.180421433004
445.8371,5395.641578745752
448.0091,5240.081785099486
450.1806,5091.948385024698
452.3514,4938.6386706510675
454.5216,4786.399883188853
456.6913,4639.779214461923
458.8603,4499.473808430179
461.0288,4359.680762655757
463.1967,4223.947129706052
465.3639,4079.3699185517034
467.5306,3937.8460959238873
469.6967,3815.5225877600897
471.8622,3685.846280619364
474.0271,3556.9640229055585
476.1914,3422.972626164097
478.3551,3302.3188663708133
480.5182,3188.349485271836
482.6807,3071.611191590142
484.8426,2960.5506621652457
487.0039,2840.414543120576
489.1647,2719.5994509740995
491.3248,2610.401973839609
493.4843,2505.3186726349595
495.6432,2405.496082174046
497.8015,2287.83071221759
499.9592,2184.9190484713763
502.1163,2089.3075537629265
504.2728,2000.8426690705746
506.4287,1911.3708144795964
508.5839,1819.9383900668472
510.7386,1731.2417767954903
512.8927,1628.527337429281
515.0461,1543.0414174196048
517.199,1463.4303459326184
519.3512,1377.6904367041425
521.5029,1302.4179888357176
523.6539,1230.4592876520255
525.8043,1154.1106054536067
527.9541,1076.5182022364097
530.1033,1010.1283264553349
532.2519,946.4872158001381
534.3999,877.0410978593427
536.5472,819.1861907565835
538.694,762.3187038451506
540.8401,698.2848382865341
542.9856,633.0807876190302
545.1305,570.4027383981593
547.2748,518.3968708486209
549.4185,467.95366687166825
551.5615,422.7084295838067
553.704,380.49178724434023
555.8458,338.4301452553482
557.987,299.4461079059329
560.1276,255.15889856801368
562.2675,219.6347491468914
564.4069,182.3373425104437
566.5456,153.67816737540124
568.6837,121.46689090839936
570.8212,93.41164503119217
572.958,66.66934821128962
575.0942,44.84598573386029
577.2299,24.396876857223106
579.3648,8.326892828321434
581.4992,-7.409338830686465
583.6329,-21.507273783368873
585.766,-48.012293674029934
587.8985,-66.46956528934243
590.0304,-116.37377577317238
592.1616,-109.86894823844341
594.2922,-124.14794322404487
596.4222,-142.35252367803332
598.5515,-147.3732123106165
600.6802,-150.69910973021615
602.8083,-153.46784428686806
604.9358,-168.71553884653986
607.0626,-174.12678313147626
609.1888,-184.3844813956748
611.3144,-185.71979836663377
613.4393,-184.46205677089893
615.5636,-187.8387239942458
617.6873,-183.87542464652506
619.8103,-184.74590682874987
621.9327,-177.97208172645333
624.0544,-171.3240149136327
626.1756,-163.96999402323854
628.2961,-165.8265951614012
630.4159,-157.7587563740526
632.5351,-155.37975909947272
634.6537,-150.70130876598705
636.7716,-144.73355855810223
638.8889,-140.4351561543299
641.0056,-126.31330334497034
643.1216,-113.92379897310457
645.237,-102.97118001199851
647.3518,-78.80884533625067
649.4659,-65.88916513838922
651.5793,-52.81372231057321
653.6922,-39.1334415122692
655.8043,-18.499246874824166
657.9159,-8.662062138151668
660.0268,6.1771891428215895
662.137,29.017583499829925
664.2466,41.05819740280276
666.3556,59.89810703149851
668.4639,83.53638815512386
670.5716,113.9721159439141
672.6786,127.15436473277805
674.785,143.28220771693304
676.8907,175.40471682010684
678.9958,204.72096253323252
681.1002,225.63001359326154
683.204,241.3309366899266
685.3072,271.47279625668307
687.4097,302.50465431370685
689.5115,327.02557016645005
691.6127,361.88460009539267
693.7132,390.6307971107599
695.8131,401.5132106040255
697.9123,446.78088606038364
700.0109,480.1828649499148
702.1089,515.2681842749298
704.2061,553.1858762358825
706.3028,585.9849678806204
708.3987,617.9644807251534
710.4941,656.6734304256679
712.5887,696.7108264587587
714.6827,732.8756717343131
716.7761,774.8169621951529
718.8688,816.833686455393
720.9608,844.1248253809899
723.0522,884.0893516696378
725.1429,930.5762295777822
727.233,974.5844145210285
729.3224,1016.012852609223
731.4112,1063.2104802064132
733.4993,1107.3262235165457
735.5867,1150.3089981115481
737.6735,1198.7577084900622
739.7596,1244.171247647726
741.845,1291.898496592643
743.9298,1340.0383238912254
746.014,1392.0895851909154
748.0974,1438.2511227388095
750.1802,1487.2717648611215
752.2624,1540.1003255015967
754.3439,1593.2356037312493
756.4247,1639.5763832201483
758.5048,1703.8714317060294
760.5843,1757.119500530891
762.6631,1811.8193239980683
764.7413,1871.6696188396963
766.8188,1929.1190836697351
768.8956,1983.2163983854916
770.9718,2042.0602235931074
773.0473,2101.099200066543
775.1221,2158.9819481592203
777.1962,2222.607067213561
779.2697,2281.323134982238
781.3426,2326.0287069918995
783.4147,2409.1723159559842
785.4862,2470.352471327664
787.557,2533.1676584683737
789.6271,2601.5163380360536
791.6966,2666.3969453569734
793.7654,2732.2578897423155
795.8335,2800.6975538393526
797.901,2873.0642929728056
799.9678,2931.7564344604325
802.0339,3008.122276889386
804.0993,3060.5100895292926
806.1641,3146.6681115685424
808.2282,3221.0945515905405
810.2916,3274.0875867119903
812.3544,3369.5953618387503
814.4164,3406.815989135772
816.4778,3471.947547072152
818.5385,3561.1880800488507
820.5986,3634.2855977473955
822.658,3710.7380742374808
824.7166,3801.4934472459136
826.7747,3808.699617392187
828.832,3902.704447280885
830.8886,4025.95576142965
832.9446,4122.4013453291045
834.9999,4016.5889442103144
837.0545,4218.966262080379
839.1085,4353.030962780555
841.1618,4405.380667962418
843.2143,4344.662955747284
845.2662,4413.475360202698
847.3175,4595.815371949531
849.368,4273.53043747395
851.4179,4693.867957303948
853.467,4498.575289232278
855.5155,4734.6997441130225
857.5633,4577.788587814532
859.6105,4543.939038858181
861.6569,4797.648269987461
863.7027,4532.86340850647
865.7478,4759.431533742827
867.7922,4765.949679695594
869.8359,4999.714832769518
871.8789,4729.873931709866
873.9212,5055.123865264824
875.9629,5242.061474883885
878.0039,5259.883551465311
880.0441,5264.0868334867555
882.0837,5340.568006827059
884.1226,5382.673704724199
886.1609,5412.550507010485
888.1984,5266.294939691506
890.2352,5657.0534746474
892.2714,5357.822531095335
894.3069,5644.448471681979
896.3416,5476.927605475779
898.3757,5531.706185100724
900.4091,4990.180408411579
902.4418,5920.946417946041
904.4739,5578.5003063400945
906.5052,5704.288107020271
908.5358,5548.305797628069
910.5658,5396.499298762159
912.595,5486.364475538197
914.6236,4838.147139106855
916.6515,6014.993045755211
918.6786,5050.09790338888
920.7051,5424.257359763556
922.7309,5357.317012133979
924.756,5657.072403512371
926.7804,5444.119023337815
928.8041,4729.802304478675
930.8272,5450.71762536218
932.8495,5598.510317117594
934.8711,4978.175656366999
936.892,4578.1588637474415
938.9123,4955.255110114245
940.9318,4540.25952054112
942.9506,4471.267170549276
944.9688,4670.32309025732
946.9862,3775.4722650712356
949.003,4251.359633693799
951.019,3537.080097073078
953.0344,3854.4785136435967
955.0491,3822.2997064691153
957.063,4250.438460068639
959.0763,4422.439520738211
961.0888,3935.797592269533
963.1007,4546.157334229894
965.1119,4562.913366828609
967.1223,4245.810264813481
969.1321,4877.042557303183
971.1412,4258.604730958352
973.1495,4112.941223669186
975.1572,4435.796430739858
977.1641,4346.964706345148
979.1704,4296.190360301858
981.1759,4416.567658957218
983.1808,4181.24082569655
985.1849,4350.654039739544
987.1884,4636.6514384935
989.1911,5160.377115859192
991.1932,4296.025119370941
993.1945,4588.0394449593
995.1951,4917.414045594633
997.1951,4501.592828366935
999.1943,4343.369651192072
1001.1928,4209.188326969997
1003.1906,4351.292625167
1005.1877,3855.1262731575116
1007.1841,3624.982954803061
1009.1798,3656.306315413938
1011.1748,3534.3899640506424
1013.1691,3358.727473210587
1015.1627,2433.9623800474
1017.1556,2507.8881881274065
1019.1477,2698.248376677315
1021.1392,2211.0863998450295
1023.1299,1872.4956847959402
1025.12,2123.069636584645
1027.1093,1884.301641540791
1029.0979,1989.8850647633735
1031.0859,2038.2132525083507
1033.0731,1602.879531132865
1035.0596,1751.0772066119462
1037.0454,1514.5495688918381
1039.0304,1243.9398904080517
1041.0148,972.3414284506434
1042.9985,917.6974278702837
1044.9814,1063.9011237942614
1046.9636,803.4457421729385
1048.9452,786.4244983176759
1050.926,782.2805995054005
1052.9061,682.6572451488391
1054.8855,748.4976268379178
1056.8642,659.4449293359867
1058.8421,770.7923299214526
1060.8194,788.2329992782979
1062.7959,751.5601003825723
1064.7717,758.816788328033
1066.7469,766.1462106928811
1068.7213,747.9915074671735
1070.695,682.7958109795
1072.6679,492.80224607857235
1074.6402,561.3539307851897
1076.6117,610.8939781921217
1078.5826,595.0154957786144
1080.5527,602.9615849149777
1082.5221,655.1753410214005
1084.4908,958.0998534884711
1086.4587,1156.22820515505
1088.426,1383.0534692790316
1090.3925,1326.7687075560461
1092.3584,1299.2169678512073
1094.3235,977.9912847619489
1096.2879,872.7846798935061
1098.2515,800.4901650712709
1100.2145,897.3507433927807
1102.1767,896.2094099507085
1104.1382,998.5091508642508
1106.099,1248.4929432904828
1108.0591,1329.5537544014296
1110.0185,1349.5845388842063
1111.9771,1533.8282381304089
1113.9351,1209.5277800358235
1115.8923,853.6760771579429
1117.8488,495.6660299590585
1119.8045,141.24053036468104
1121.7596,100.2424653436683
1123.7139,-68.73527954745805
1125.6675,8.500180245362571
1127.6204,196.34241594163177
1129.5726,168.18499867584615
1131.524,225.22149761910987
1133.4748,358.8954802606895
1135.4248,346.45051183765463
1137.3741,385.2801539981374
1139.3226,402.8779649258213
1141.2705,491.38749895157525
1143.2176,266.50230637756613
1145.164,348.1159325920962
1147.1097,401.4219203184766
1149.0546,442.31380879885546
1150.9989,463.08513326117827
1152.9424,341.0294245102705
1154.8852,149.54020872013643
1156.8272,93.21100865452172
1158.7686,31.435345581776346
1160.7092,-57.74326016184932
1162.6491,-111.93128855444229
1164.5883,21.415357281046454
1166.5267,73.04189241523272
1168.4644,306.74353170459653
1170.4014,469.06548927520635
1172.3377,813.3529761856771
1174.2732,997.7011988040322
1176.2081,1278.1553553647682
1178.1421,1434.3606341253908
1180.0755,1590.1622105619026
1182.0082,1543.2052458066682
1183.9401,1501.5848850904586
1185.8713,1253.3962582120075
1187.8017,1073.8844799541912
1189.7315,881.5446525659572
1191.6605,534.0718675574171
1193.5888,329.51120762328355
1195.5163,249.20775011755177
1197.4432,204.70656909910758
1199.3693,136.10273613478785
1201.2947,-11.658679255611787
1203.2193,-61.932608913310105
1205.1432,10.476131790681393
1207.0664,52.51334619209956
1208.9889,101.4248375219322
1210.9106,185.60640848602634
1212.8316,228.95386077602598
1214.7519,341.96299422752054
1216.6715,374.6796063866277
1218.5903,391.99949137978547
1220.5084,303.0684395866847
1222.4257,384.0822374670024
1224.3424,155.88666844971885
1226.2583,230.6775121230312
1228.1735,399.450546516302
1230.0879,427.151547352114
1232.0016,595.2262863585784
1233.9146,594.2705309922894
1235.8269,536.7300427575974
1237.7384,441.9005772161472
1239.6492,173.477884562315
1241.5592,190.05771057151287
1243.4686,-21.764200715639163
1245.3772,-37.54210715908266
1247.285,-145.33004919442465
1249.1922,-172.2816922116399
1251.0986,-108.04924975353788
1253.0042,-143.2332142688465
1254.9092,-27.88299879428814
1256.8134,64.90341453320434
1258.7169,303.8283221278398
1260.6196,430.0440197548014
1262.5216,709.6028001410159
1264.4229,825.1069517130018
1266.3234,1015.2087558012499
1268.2232,1077.2104854852369
1270.1223,1068.0144036923302
1272.0207,1016.5227625778352
1273.9183,1012.5378036169059
1275.8151,928.9617581194907
1277.7113,920.3968472701745
1279.6067,746.2952829639398
1281.5014,575.4092678918096
1283.3953,452.7909972818743
1285.2885,428.24266060812806
1287.181,367.4664428167089
1289.0727,450.8645245713051
1290.9637,473.4390828609685
1292.854,673.3922901661354
1294.7435,791.326314232836
1296.6323,1077.0933160731947
1298.5204,1340.8954487861156
1300.4077,1638.3848546995505
1302.2943,1895.7136627325126
1304.1802,2061.033985420174
1306.0653,1922.8979163405456
1307.9497,1817.807528461337
1309.8333,1826.9648755212947
1311.7162,1864.421993081105
1313.5984,1975.0808984318064
1315.4798,2158.493590220245
1317.3605,2358.362047342478
1319.2405,2577.7382271096394
1321.1197,2670.4740632492467
1322.9982,2622.271463711444
1324.876,2702.6323097416753
1326.753,2643.308456362669
1328.6293,2767.5017315708537
1330.5048,2856.6639369296026
1332.3796,2840.3968463272868
1334.2537,2887.6022050856445
1336.127,2824.2317301224793
1337.9996,2767.48710947956
1339.8714,2770.6700029563654
1341.7426,2673.732042677544
1343.6129,2700.2748330610266
1345.4826,2667.799951787456
1347.3515,2662.4589495347354
1349.2196,2616.75335030281
1351.087,2673.7346514670135
1352.9537,2766.554324235185
1354.8197,2923.263813077836
1356.6849,3151.7145347999212
1358.5493,3216.2078769737564
1360.4131,3228.1951956545163
1362.276,3127.9278147353216
1364.1383,2949.907025827364
1365.9998,2736.234089262569
1367.8606,2490.660235873802
1369.7206,2266.4366691316136
1371.5799,2129.114567599954
1373.4384,1994.6450871784255
1375.2962,1922.3793624755017
1377.1533,1617.868508153224
1379.0096,1280.6636196498512
1380.8652,1078.4157762249997
1382.7201,903.6760443316452
1384.5742,631.5954796386504
1386.4275,487.8251287781204
1388.2802,403.91603206623404
1390.132,254.46922494091632
1391.9832,256.9357388009412
1393.8336,127.66660250041241
1395.6832,113.8628423240807
1397.5322,56.12548328005141
1399.3803,54.90554923783202
1401.2278,5.304063505667727
1403.0745,0.22204884277743986
1404.9204,-24.13947204464057
1406.7656,45.92052133133984
1408.6101,21.60329061194716
1410.4538,-25.68990302079328
1412.2968,4.092201399151236
1414.139,41.451121479898575
1415.9805,163.33837478865826
1417.8213,185.15547847813286
1419.6613,316.05394806765617
1421.5006,561.8352972250468
1423.3391,849.9510364575726
1425.1769,1205.352670654156
1427.0139,1786.5916962042465
1428.8502,2405.519597443774
1430.6858,2993.2378408427794
1432.5206,3367.5478688161165
1434.3547,3668.651093846278
1436.188,3790.898894740294
1438.0206,3777.192613618674
1439.8524,3558.233554692946
1441.6835,3594.572984402719
1443.5139,3432.2621336052835
1445.3435,3404.452197212213
1447.1724,3392.6943358125063
1449.0005,3336.6896759506453
1450.8279,3285.2893102441667
1452.6545,3276.6442979437306
1454.4804,3386.8056654471075
1456.3056,3394.3744063856393
1458.13,3288.9014805226216
1459.9536,3107.1878136776068
1461.7766,2759.134298781166
1463.5987,2365.9917976919787
1465.4202,2038.061144677402
1467.2409,1662.0431503448854
1469.0608,1419.4886049212873
1470.88,1178.5482820130492
1472.6984,989.1229410317283
1474.5161,769.3133296034175
1476.3331,661.7701854629995
1478.1493,609.2442386522307
1479.9648,557.436212595192
1481.7795,461.5468246235323
1483.5935,459.7267864945388
1485.4067,428.6268053500644
1487.2192,409.7475837346683
1489.031,397.08981990667235
1490.842,397.3042080269297
1492.6522,423.5914382854171
1494.4618,336.4521968990739
1496.2705,406.5371658489348
1498.0785,399.09702375154666
1499.8858,394.2824451580709
1501.6924,383.24410062872266
1503.4981,413.13265678088646
1505.3032,407.74877639949773
1507.1075,427.24311813819077
1508.911,430.2163365731176
1510.7138,389.5690820079835
1512.5159,396.6520004443555
1514.3172,365.2657339881298
1516.1178,313.710920778678
1517.9176,344.2881953027536
1519.7166,339.6481889100032
1521.515,321.49152950720236
1523.3126,313.2688416046585
1525.1094,293.5307464977668
1526.9055,275.9278623492646
1528.7008,250.510804386573
1530.4954,204.08018507784436
1532.2893,251.63661438612326
1534.0824,207.030700233674
1535.8747,266.16304802639206
1537.6663,219.68426109987558
1539.4572,224.24494012809373
1541.2473,223.69568358821562
1543.0367,203.4370877149595
1544.8253,170.96974650610719
1546.6132,238.8442519250748
1548.4003,235.6611942255986
1550.1867,270.92116127299596
1551.9723,286.67473857595905
1553.7572,340.5225089339947
1555.5414,331.115052279878
1557.3247,352.2029451411727
1559.1074,391.6367607342836
1560.8893,465.7170687536054
1562.6705,537.3944349771809
1564.4509,593.2194205258711
1566.2305,672.9425811466172
1568.0094,856.7144666541863
1569.7876,954.5856201339375
1571.565,1033.806576104078
1573.3417,1116.2778595369819
1575.1176,1177.749985066981
1576.8928,1182.3234561656209
1578.6672,1083.0987645269925
1580.4409,978.9763900219295
1582.2138,868.6568016903111
1583.986,713.8404587822661
1585.7575,685.0778118613598
1587.5282,592.6693043527739
1589.2981,524.8153728309335
1591.0673,523.9664479435633
1592.8358,513.9729550902593
1594.6035,484.4853144309527
1596.3704,490.6039409858495
1598.1366,487.9792449303095
1599.9021,518.5116315336782
1601.6668,564.5515011855023
1603.4308,587.1492490902201
1605.194,671.0552648067751
1606.9564,800.4699320226136
1608.7182,943.193627714656
1610.4791,1051.8267208551188
1612.2394,1223.8195709842803
1613.9988,1335.3725271241601
1615.7576,1586.9359260586098
1617.5156,1900.5600912177433
1619.2728,2150.0453301623274
1621.0293,2396.6919314475526
1622.785,2484.750162128137
1624.54,2399.670265291923
1626.2942,2238.1024591792593
1628.0477,1976.6969380337978
1629.8005,1751.4538737181865
1631.5525,1548.4234183281187
1633.3037,1319.5557064447567
1635.0542,1213.7508571650433
1636.804,1097.2089763903641
1638.553,981.3301578846149
1640.3013,925.4144844396069
1642.0488,888.1120290338695
1643.7955,925.1228553918045
1645.5416,954.2970183566722
1647.2868,1029.5845635205296
1649.0313,1062.485526932458
1650.7751,1216.2999343456977
1652.5181,1412.8778008886547
1654.2604,1637.7191295267367
1656.0019,1980.3739090965828
1657.7427,2380.192112057659
1659.4828,2737.423691065698
1661.222,3017.5185749745324
1662.9606,3054.5766652637576
1664.6984,2958.5978332377927
1666.4354,2673.6819196553042
1668.1717,2224.428735688991
1669.9072,1757.2380657747199
1671.642,1450.6596721040933
1673.3761,1183.7432992963331
1675.1094,911.7886774640738
1676.8419,763.0955248825157
1678.5737,636.913550708985
1680.3048,559.7424564698595
1682.0351,501.58193732239306
1683.7646,385.88168282642073
1685.4934,393.5913775259469
1687.2215,328.6607021061809
1688.9488,264.1393333164251
1690.6754,226.02694461938336
1692.4012,273.6232068363515
1694.1263,240.82778852838055
1695.8506,213.89035552028326
1697.5742,197.16057122860366
1699.297,197.53809693099356
1701.0191,145.2225919335051
1702.7404,111.86371356681411
1704.461,63.81111770937969
1706.1808,79.46445912102354
1707.8999,81.07339192346444
1709.6182,92.2875694437771
1711.3358,72.05664419831737
1713.0527,65.43026778056992
1714.7688,51.40809106346023
1716.4841,-2.210235734391972
1718.1987,46.47493709156333
1719.9126,49.713281326115975
1721.6257,20.154468289312717
1723.338,0.5481688040836161
1725.0496,-4.305946508186025
1726.7605,20.041792968411755
1728.4706,12.641100866178022
1730.18,-31.608309382994776
1731.8886,-15.006724473623763
1733.5964,-36.70411533323022
1735.3036,-30.150302972158897
1737.0099,7.905258273347499
1738.7156,24.263415268562312
1740.4204,7.925014799699056
1742.1246,27.940903410351893
1743.8279,7.811927564853249
1745.5306,63.88893344813914
1747.2325,35.97276716703345
1748.9336,28.064274189482603
1750.634,-7.535700376283785
1752.3336,26.873688297322587
1754.0325,65.54336031953062
1755.7307,59.17423553082517
1757.4281,97.71723311627647
1759.1247,112.27327166919713
1760.8206,106.04326880574263
1762.5158,102.5281410193329
1764.2102,90.17880374296692
1765.9039,98.69617138435751
1767.5968,81.68115744944407
1769.289,62.784674457208894
1770.9804,100.10763410985783
1772.6711,135.05094748176998
1774.361,104.2155246462753
1776.0502,156.30227432616812
1777.7386,179.46210420208627
1779.4263,140.79592039164345
1781.1132,169.85462721783733
1782.7994,154.18912759569866
1784.4849,184.25032274170917
1786.1696,175.68911233046674
1787.8535,177.9563941940687
1789.5367,160.00306440773602
1791.2192,208.03001726713592
1792.9009,179.13814546791582
1794.5818,185.37833962542754
1796.2621,190.60148856364322
1797.9415,188.05847925276248
1799.6202,207.20019675697586
1801.2982,228.02752425990184
1802.9755,225.84134287316374
1804.6519,235.74253142811358
1806.3277,210.3319664976989
1808.0027,199.26052229744346
1809.6769,250.12907093956164
1811.3504,242.63848254367258
1813.0231,246.53962472812236
1814.6951,263.0333626848769
1816.3664,292.5205591405211
1818.0369,302.4520741912984
1819.7067,283.02876500824823
1821.3757,302.2514857379083
1823.044,301.52108769653205
1824.7115,317.63841917786704
1826.3783,256.15432546046213
1828.0443,302.619648646476
1829.7096,286.3352282765354
1831.3741,320.10190086507646
1833.0379,312.6705000631846
1834.701,326.1918563209347
1836.3633,371.6167969617072
1838.0248,323.1961460469647
1839.6856,359.9807239220154
1841.3457,368.27134770019984
1843.005,385.7688308950601
1844.6636,365.32398333743186
1846.3214,412.63761100046577
1847.9785,442.3605162040694
1849.6349,431.39349714178934
1851.2904,436.9873475835684
1852.9453,416.4428569854226
1854.5994,427.81081043350423
1856.2528,493.1919888495431
1857.9054,456.13716887716873
1859.5572,492.2471222280892
1861.2083,499.92261605264684
1862.8587,521.7144125787163
1864.5084,515.0732690349432
1866.1572,511.1999374328425
1867.8054,501.5951646331923
1869.4528,507.859692384789
1871.0994,519.3942574204866
1872.7453,493.79959139454695
1874.3905,498.9264207672968
1876.0349,525.3754670610633
1877.6786,528.3974468089091
1879.3215,579.6430712901456
1880.9637,534.3130465001213
1882.6051,536.8580726377531
1884.2458,549.8288445588405
1885.8858,532.9260517506027
1887.525,567.850378201987
1889.1634,527.4025025726824
1890.8011,554.8330978438717
1892.4381,551.292831722727
1894.0743,604.2323663680927
1895.7098,595.8523584258819
1897.3446,583.153458499688
1898.9786,594.2863112345894
1900.6118,572.3515554441365
1902.2443,575.5498239990211
1903.8761,563.3817440464263
1905.5071,522.5479369780387
1907.1374,520.1490185517396
1908.7669,556.3355992999277
1910.3957,522.0082845535198
1912.0237,513.8676740800838
1913.651,528.7143624271066
1915.2776,540.348939003401
1916.9034,512.3219879306507
1918.5285,487.48408792705413
1920.1528,479.0358125875955
1921.7764,536.9777306324286
1923.3992,489.1604059913552
1925.0213,438.5843972244038
1926.6427,440.2502580000091
1928.2633,432.9085376007679
1929.8832,471.1597809067789
1931.5023,471.854528469059
1933.1207,460.64331612703245
1934.7383,464.27667500158714
1936.3552,447.50513160718765
1937.9714,455.52920781553075
1939.5868,420.0494210232682
1941.2015,385.01628407176395
1942.8154,371.98030560187726
1944.4286,380.09199040431486
1946.041,356.60183954997774
1947.6528,347.96035030884923
1949.2637,346.71801638489706
1950.8739,352.57532800248555
1952.4834,374.4827719187997
1954.0921,388.09083136527806
1955.7001,338.9999858285264
1957.3074,322.2607109142409
1958.9139,314.5734788381287
1960.5197,333.88875859328255
1962.1247,302.45701602707777
1963.729,282.7787136479983
1965.3325,294.30431093996776
1966.9353,307.7842645591263
1968.5374,297.5190282185704
1970.1387,280.35905255355465
1971.7393,282.90478522414924
1973.3392,267.40667108684465
1974.9383,257.41515216907646
1976.5366,247.63066782422175
1978.1342,265.553654831514
1979.7311,258.63454749388256
1981.3273,267.3737774587207
1982.9227,254.97177378709057
1984.5173,237.42896286631367
1986.1112,220.94576853401304
1987.7044,236.6726122535165
1989.2968,238.8599132786985
1990.8885,239.65808849670793
1992.4795,261.6675524061102
1994.0697,236.23871710888852
1995.6592,241.62199209035862
1997.2479,204.91778447344404
1998.8359,227.72649896485927
2000.4232,221.79853822214318
2002.0097,204.4843026255694
2003.5955,189.23419033743085
2005.1805,229.94859747517694
2006.7648,209.0779182639235
2008.3484,204.8225446293054
2009.9312,238.13286640617844
2011.5133,238.55927138118204
2013.0946,224.85214495962646
2014.6752,214.81187016123113
2016.2551,236.13882775719503
2017.8342,225.38339637060017
2019.4126,203.29595226314268
2020.9902,181.57686944269153
2022.5672,187.7765198841571
2024.1433,212.5952737466887
2025.7188,193.18349931167722
2027.2935,198.1415627345632
2028.8674,183.26982823895924
2030.4406,199.8186580670581
2032.0131,177.13841262836104
2033.5849,161.32945033419128
2035.1559,182.39212782448703
2036.7261,217.62680012589408
2038.2957,221.88382044114223
2039.8645,198.56353979669984
2041.4325,202.91630700019414
2042.9998,219.39246887362606
2044.5664,215.492370209834
2046.1323,216.31635360773453
2047.6974,198.41475951132543
2049.2617,184.5379262014485
2050.8254,226.5361899747977
2052.3883,217.65988528269372
2053.9504,201.609344311104
2055.5118,204.93489706939818
2057.0725,179.936871550859
2058.6325,200.81559369941806
2060.1917,189.871387659643
2061.7502,181.65457556794718
2063.3079,189.76547766203566
2064.8649,179.35441236307088
2066.4212,198.97169619456417
2067.9767,179.717643886489
2069.5315,193.9425681790999
2071.0856,170.79678001547836
2072.6389,155.43058839928472
2074.1915,133.6943006262063
2075.7433,135.13822243763207
2077.2945,150.1126582380084
2078.8448,166.26791108041016
2080.3945,132.4542825167855
2081.9434,143.8720724364066
2083.4916,138.62157940400357
2085.039,147.50310054559668
2086.5857,148.56693160099258
2088.1317,174.21336683497339
2089.677,149.94269902664473
2091.2215,141.85521921299187
2092.7652,132.65121693157016
2094.3083,143.23098030139136
2095.8506,158.1947961149517
2097.3921,171.24294973244378
2098.933,148.225724932111
2100.4731,171.79340377977132
2102.0124,175.1462668589902
2103.5511,176.53459303539967
2105.089,185.8086594231736
2106.6261,181.91874137114792
2108.1626,182.16511237006853
2109.6983,160.09804409150638
2111.2332,206.51780638537912
2112.7675,172.7746675006265
2114.301,180.81889362101174
2115.8337,198.00074920255975
2117.3657,197.87049689310516
2118.897,212.02839736047827
2120.4276,203.47470929380324
2121.9575,174.7596892619249
2123.4866,176.08359179893614
2125.0149,195.3466696913465
2126.5426,182.64917396482997
2128.0695,184.24135369160285
2129.5956,187.07345611738674
2131.1211,197.49572664550033
2132.6458,185.80840880853248
2134.1698,184.8117441641116
2135.693,185.30597241178566
2137.2155,217.44133140298527
2138.7373,198.01805713608792
2140.2584,179.83638343505936
2141.7787,182.7465421436882
2143.2983,174.7987633073999
2144.8171,162.59327514415054
2146.3353,166.28030412391126
2147.8527,150.61007509072624
2149.3693,190.58281122583867
2150.8853,168.59873420439544
2152.4005,148.20806379571604
2153.9149,179.6610180831358
2155.4287,167.6578136679127
2156.9417,186.14866535470082
2158.454,169.88378627157908
2159.9655,184.5633876851416
2161.4764,173.58767916315082
2162.9865,170.80686842773594
2164.4958,180.47116146515873
2166.0045,156.4307625536194
2167.5124,190.48587416660848
2169.0195,183.3866972133128
2170.526,195.93343069806542
2172.0317,198.37627179133506
2173.5367,185.9654157042596
2175.0409,199.9010556642179
2176.5445,196.6833830389378
2178.0473,191.2625871971377
2179.5494,180.8888555407084
2181.0507,181.31237355892245
2182.5513,159.38332493216512
2184.0512,162.20189152770126
2185.5504,167.86825361896445
2187.0488,146.78258985737648
2188.5465,160.64507721567588
2190.0435,175.30589119877914
2191.5397,148.46520570515258
2193.0353,160.62319288019899
2194.5301,154.8300233846794
2196.0241,136.6358662731236
2197.5175,155.7408890517636
2199.0101,146.04525786047725
2200.502,132.44913728173196
2201.9931,136.25269043754633
2203.4835,140.5060791254491
2204.9733,130.25946378044864
2206.4622,147.91300343249168
2207.9505,128.06685580893554
2209.438,111.07117715800814
2210.9248,86.9761224472768
2212.4109,104.38184553359952
2213.8962,93.63849940407636
2215.3809,122.79623600199648
2216.8648,120.45520633426077
2218.3479,129.31556017981347
2219.8304,121.57744611304406
2221.3121,119.2910114151855
2222.7931,120.7564021517037
2224.2733,96.07376319515333
2225.7529,75.39323821052403
2227.2317,82.61496990206979
2228.7098,118.98910022011114
2230.1872,87.61577028882584
2231.6638,106.49512004250573
2233.1397,88.97728853928129
2234.6149,80.16241377234019
2236.0894,89.80063284509197
2237.5632,86.39208205933028
2239.0362,83.98689681884116
2240.5085,81.18521166349092
2241.9801,78.68716029328061
2243.4509,83.24287559636014
2244.921,82.1524896740093
2246.3904,76.1661337950818
2247.8591,70.63393840690605
2249.3271,66.85603319514848
2250.7943,73.48254713914048
2252.2608,51.163608549651144
2253.7266,68.69934500263116
2255.1917,66.28988356239734
2256.656,55.98535060627273
2258.1197,62.53587184868775
2259.5826,57.94157244422331
2261.0447,62.25257692210289
2262.5062,59.11900923213307
2263.9669,71.59099270160004
2265.4269,81.86865006660173
2266.8862,75.25210334732765
2268.3448,87.94147374528347
2269.8026,88.83688170945425
2271.2598,83.53844680941347
2272.7162,59.04628772636261
2274.1719,90.61052230612495
2275.6268,67.58126780405837
2277.0811,88.3586405694241
2278.5346,101.1927562756673
2279.9874,106.38372971265562
2281.4395,105.83167465832321
2282.8908,110.03670382677319
2284.3414,111.94892887379137
2285.7914,91.51846035479775
2287.2406,91.04540770572748
2288.689,105.32987944733122
2290.1368,104.17198318990904
2291.5838,94.17182549046265
2293.0302,103.77951186427526
2294.4758,94.9951468849149
2295.9206,77.56883408815338
2297.3648,92.60067605981385
2298.8082,91.34077461003108
2300.251,92.68923062293197
2301.693,88.5461440692452
2303.1343,95.66161399280827
2304.5748,85.13573855199684
2306.0147,90.66861494857949
2307.4538,93.76033953296792
2308.8922,93.91100774889219
2310.3299,72.02071410247754
2311.7669,91.739552160745
2313.2031,69.56761477049895
2314.6387,68.90499386115334
2316.0735,72.00178066644094
2317.5076,79.35806573104583
2318.941,89.4239388796359
2320.3737,91.39948914329761
2321.8056,79.58480465888078
2323.2369,78.07997264924234
2324.6674,74.2850795413915
2326.0972,78.40021098153557
2327.5263,71.72545187302785
2328.9547,89.16088633522395
2330.3823,83.25659777022429
2331.8092,82.86266868852817
2333.2355,92.92918076806745
2334.661,103.1562148581479
2336.0858,95.99385087879
2337.5098,94.39216771845167
2338.9332,84.50124330565995
2340.3558,91.57115462502225
2341.7778,97.00197781612951
2343.199,88.34378810286853
2344.6195,89.6466597391136
2346.0393,88.4606660953068
2347.4583,98.48587964541275
2348.8767,96.17237197879876
2350.2943,111.42021369996382
2351.7113,119.67947445169102
2353.1275,113.50022276256914
2354.543,89.63252596439816
2355.9578,112.92645025397815
2357.3718,75.83206093178433
2358.7852,74.89942216903592
2360.1978,72.12859737863118
2361.6098,98.56964922447378
2363.021,88.87263964918566
2364.4315,89.68762960969525
2365.8413,74.96467917420023
2367.2504,80.85384751402671
2368.6587,70.05519305085181
2370.0664,73.6187733978204
2371.4733,59.74464546752188
2372.8795,71.2828654363625
2374.285,79.83348888330283
2375.6899,65.9965706744797
2377.0939,50.27216487770147
2378.4973,52.31032490081725
2379.9,58.811103648956305
2381.3019,43.97455350414293
2382.7032,49.700726260289684
2384.1037,36.43967327156406
2385.5035,41.89144539512836
2386.9027,39.356093123753
2388.3011,53.433666531296694
2389.6987,63.52421529805588
2391.0957,39.02778856999794
2392.492,46.44443485785541
2393.8876,45.574202282075476
2395.2824,22.467138498674103
2396.6765,26.673290707912656
2398.07,24.5427058853802
2399.4627,32.5754307399493
2400.8547,46.4715117350579
2402.246,37.080995008390346
2403.6366,23.703926232919912
2405.0265,16.590350710811435
2406.4156,12.390313507187784
2407.8041,11.053859521273807
2409.1918,14.331033528387252
2410.5789,31.471880193312245
2411.9652,28.126444037523015
2413.3508,26.144769267777065
2414.7358,20.42689980957084
2416.12,26.272879326955717
2417.5035,31.482751279716013
2418.8863,15.256558864911767
2420.2684,9.944344964773336
2421.6497,18.54615230896752
2423.0304,8.362023527720794
2424.4104,0.34200106579692147
2425.7896,7.486127284345457
2427.1682,9.294441127921345
2428.546,5.766981466220841
2429.9232,15.153787075998025
2431.2996,22.454896676339104
2432.6753,30.420348834795277
2434.0503,34.70018189436951
2435.4246,13.544433893859605
2436.7982,13.303142525063322
2438.1711,37.47634534433655
2439.5433,23.764079775005484
2440.9148,28.166382865633295
2442.2856,5.883291427144741
2443.6557,16.664841988800163
2445.025,8.31107102103033
2446.3937,11.622014827617932
2447.7617,6.797709629237943
2449.1289,21.888191530344557
2450.4955,20.64349656741615
2451.8613,29.713660558049924
2453.2265,23.148719113409697
2454.5909,45.39870754752428
2455.9546,23.063660942935712
2457.3177,31.343613928205286
2458.68,46.13860090125581
2460.0416,33.248655946578765
2461.4025,42.073812687277496
2462.7627,27.614104413970836
2464.1222,39.06956399654109
2465.4811,47.89022402872888
2466.8392,37.92611671358145
2468.1966,35.927273775245794
2469.5533,53.843726558606704
2470.9093,48.62550604927901
2472.2645,59.97264269444349
2473.6191,50.58516645502641
2474.973,52.06310669223012
2476.3262,46.606492261406856
2477.6787,44.26535149727988
2479.0305,51.03971226850808
2480.3816,59.829602001099374
2481.7319,46.98504761066579
2483.0816,38.406075414525276
2484.4306,32.24271126014628
2485.7789,44.34498061093791
2487.1264,47.36290860788131
2488.4733,36.74651994851047
2489.8195,23.04583885673128
2491.165,40.510889188986766
2492.5097,32.29169457126136
2493.8538,40.23827822443127
2495.1972,22.750663046458158
2496.5398,11.27887153292022
2497.8818,31.82292595189074
2499.2231,15.582848458655917
2500.5637,13.358660890273313
2501.9035,37.600384927974574
2503.2427,26.558042119404945
2504.5812,24.63165363620965
2505.919,35.57124038445272
2507.256,33.376823023883844
2508.5924,34.698421858541224
2509.9281,32.78605685869752
2511.2631,30.08974764764207
2512.5974,26.30951352080183
2513.9309,27.24537347270916
2515.2638,26.397346234804445
2516.596,32.71545026607373
2517.9275,31.749703761531237
2519.2583,42.000124589037114
2520.5884,28.41673029895628
2521.9178,31.949538021652643
2523.2465,22.348564603323666
2524.5745,13.063826570671608
2525.9018,36.39534022691578
2527.2284,38.343121744637756
2528.5543,26.407186932468903
2529.8796,29.28755121560698
2531.2041,43.03422975518197
2532.5279,43.14723741944772
2533.851,44.57658864631685
2535.1735,43.3222974422315
2536.4952,53.93437736786609
2537.8163,50.062841550675785
2539.1366,43.30770257877066
2540.4562,50.01897253963125
2541.7752,52.796663087663546
2543.0935,53.09078537708501
2544.411,59.80135003414762
2545.7279,63.47836715419726
2547.0441,74.12184623456915
2548.3596,58.93179613781558
2549.6744,67.50822498527123
2550.9885,79.50114030895475
2552.3019,75.16054896580272
2553.6146,82.6864570177413
2554.9266,76.42886977509397
2556.2379,62.637791721321264
2557.5485,85.91322657559613
2558.8585,79.65517743071541
2560.1677,81.66364652034508
2561.4762,71.78863528160082
2562.7841,75.4301443349641
2564.0913,87.53817358303058
2565.3977,97.61272217409623
2566.7035,82.70378838107717
2568.0086,95.11136950076343
2569.313,104.73546200290684
2570.6167,88.42606140615044
2571.9197,100.48316218178252
2573.222,108.30675791683052
2574.5236,104.49684119349286
2575.8246,116.05340351090081
2577.1248,103.52643532321645
2578.4244,109.61592592406896
2579.7232,126.42186357182436
2581.0214,114.44423542868935
2582.3189,111.9330273926521
2583.6157,131.088224217262
2584.9118,135.05980953673907
2586.2072,137.7977656744224
2587.5019,144.35207360305367
2588.7959,144.02271291739862
2590.0893,144.40966176870415
2591.3819,144.96289686799082
2592.6739,145.8823934821844
2593.9652,155.01812542858033
2595.2557,159.37006506565376
2596.5456,155.2881832016974
2597.8348,154.57244905130574
2599.1234,148.52283027618978
2600.4112,157.58929299233887
2601.6983,147.42180183051232
2602.9848,151.2703198455779
2604.2705,155.63480861818516
2605.5556,151.76522821628168
2606.84,160.66153715146788
2608.1237,153.47369241769138
2609.4067,157.4016494022876
2610.689,157.29536195785454
2611.9707,141.90478236297554
2613.2516,142.3798613232807
2614.5319,152.07054812535216
2615.8115,136.67679063197488
2617.0903,145.24853518523014
2618.3685,135.1857267604314
2619.6461,143.53830888040943
2620.9229,146.50622371613736
2622.199,145.63941200320846
2623.4745,138.0378130121544
2624.7493,142.30136455711386
2626.0234,146.73000307184884
2627.2968,149.32366356711032
2628.5695,145.48227958634948
2629.8415,136.35578317978388
2631.1128,136.54410494280842
2632.3835,143.44717410726093
2633.6535,148.01491853953826
2634.9228,145.54726467156615
2636.1914,146.04413745512238
2637.4593,124.05546038651255
2638.7265,132.13115550160296
2639.9931,142.47114359570628
2641.259,142.87534414282368
2642.5242,144.39367519224584
2643.7887,146.12605336451225
2645.0525,142.02239383622646
2646.3156,135.53261032273303
2647.5781,131.75661511915268
2648.8398,135.94431916527947
2650.1009,127.29563208334389
2651.3613,130.36046213613372
2652.6211,133.78871631348102
2653.8801,143.4303003016155
2655.1385,132.88511844887853
2656.3961,130.05307366931038
2657.6531,130.38406754810103
2658.9094,138.0280003699097
2660.1651,128.08477111555635
2661.42,149.90427738558196
2662.6743,150.7864154996812
2663.9279,159.13108027850717
2665.1808,151.43816503484982
2666.433,155.35756149018925
2667.6846,159.88915985162498
2668.9354,165.33284877268125
2670.1856,170.08851530799234
2671.4351,168.9060448588641
2672.6839,172.1353211257176
2673.9321,168.02622611991433
2675.1795,175.32864013146354
2676.4263,163.7924417701122
2677.6724,167.01750789232028
2678.9179,169.20371371662577
2680.1626,179.50093279139105
2681.4067,189.20903697294193
2682.6501,173.67789632259428
2683.8928,172.55737900957365
2685.1348,170.9473514663273
2686.3761,176.09767839972824
2687.6168,165.20822280717766
2688.8568,157.57884592510118
2690.0961,172.8094073378404
2691.3348,161.39976505394975
2692.5727,156.04977535389048
2693.81,162.05929290412928
2695.0466,159.92817081063663
2696.2826,146.5062605587948
2697.5178,161.99341203470271
2698.7524,149.13947365939862
2699.9863,161.74429223398693
2701.2195,160.35771306817787
2702.452,154.1295798542401
2703.6839,164.15973468086486
2704.9151,165.3480180954498
2706.1456,174.0942690037955
2707.3755,186.49832465822374
2708.6046,185.96002057011447
2709.8331,175.72919038586588
2711.0609,186.90566589227683
2712.2881,205.98927711885517
2713.5145,210.6798522260517
2714.7403,212.9772173144254
2715.9654,227.88119637773684
2717.1899,251.59161127997618
2718.4136,254.058281606322
2719.6367,252.08102442603695
2720.8591,263.85965426780103
2722.0809,276.0939831394851
2723.3019,279.0838204103627
2724.5223,297.5789726887683
2725.7421,295.42924379219835
2726.9611,298.78443456236005
2728.1795,286.5943428866683
2729.3972,274.50876366469424
2730.6142,263.0274889300681
2731.8306,250.60030797133163
2733.0462,238.12700744675226
2734.2612,221.55737150859613
2735.4756,197.9411819278589
2736.6892,181.5782182599637
2737.9022,165.66825808092221
2739.1145,144.261077150966
2740.3262,144.10644957364343
2741.5372,131.45414800989306
2742.7475,123.35394367958952
2743.9571,109.55560648806704
2745.1661,105.35890510711965
2746.3744,88.11360711298744
2747.582,81.36947902832048
2748.7889,63.426286494634496
2749.9952,63.13379433974933
2751.2008,41.74176675722265
2752.4057,44.79996730927451
2753.61,39.05815914070877
2754.8136,47.016104948329485
2756.0165,34.123567038361216
2757.2188,31.880307246867005
2758.4204,41.43608706867576
2759.6213,32.790667679813396
2760.8215,30.943809841946177
2762.0211,26.545273988835106
2763.22,17.894820244803896
2764.4182,24.942208468723265
2765.6158,19.487198340516443
2766.8127,5.829549290685236
2768.009,18.469020554858616
2769.2045,4.355371310371993
2770.3994,7.338360549869549
2771.5936,1.617747222442631
2772.7872,-2.8067097962004937
2773.9801,-13.035251646528422
2775.1723,-8.668091429979768
2776.3639,-19.30531202582938
2777.5548,-14.996909719121277
2778.745,-16.642687934832338
2779.9346,-23.292300278812945
2781.1235,-20.745234096460763
2782.3117,-16.150744043095756
2783.4992,-21.757877529149255
2784.6861,-0.26552061912047975
2785.8723,2.6776579836871406
2787.0579,-5.07700777147943
2788.2428,-1.7781839621504787
2789.427,11.325514053451798
2790.6106,14.18548868116227
2791.7935,18.403142213561978
2792.9757,22.679876801378214
2794.1573,42.11709441130802
2795.3382,49.11619678325087
2796.5184,59.928585235936225
2797.698,82.45566059693147
2798.8769,105.24882309451846
2800.0551,101.1094721324232
2801.2327,116.13900606188463
2802.4096,131.83882222304715
2803.5859,145.7103167946659
2804.7615,180.6048846371084
2805.9364,190.5739191536411
2807.1106,201.8188119414799
2808.2842,248.34095269210457
2809.4572,272.69172907880534
2810.6294,307.4725262914642
2811.801,348.8347267930458
2812.972,401.0297099717902
2814.1423,434.65885172759045
2815.3119,481.0235239500428
2816.4808,512.2250941821535
2817.6491,582.2149251566955
2818.8167,618.0443744841928
2819.9837,665.4647939530207
2821.15,704.5775291711113
2822.3157,748.0339190917493
2823.4807,792.7352956224463
2824.645,836.1829831903763
2825.8086,880.4782982953616
2826.9716,911.1725490753965
2828.134,954.2170348636926
2829.2957,980.7130458817376
2830.4567,1021.511862808849
2831.617,1018.1147565172148
2832.7767,1029.1729876639051
2833.9358,1047.5878067248423
2835.0941,1017.560453884221
2836.2519,1001.2921588503584
2837.4089,999.3341411559666
2838.5653,987.7876103208382
2839.7211,985.3537658714233
2840.8761,1005.9837974562959
2842.0306,1023.0288848704945
2843.1843,1068.14019784922
2844.3374,1120.4688958973845
2845.4899,1165.3661278385
2846.6417,1243.3830312913879
2847.7928,1322.72073222121
2848.9433,1398.6303441592984
2850.0931,1483.362967409779
2851.2422,1566.7696882904747
2852.3907,1642.3515782855814
2853.5385,1694.1596932115967
2854.6857,1739.4950724615037
2855.8323,1797.8587384866903
2856.9781,1833.451696343593
2858.1233,1878.4249331100639
2859.2679,1925.6794175294365
2860.4118,1980.4660995607985
2861.555,2027.8859099064414
2862.6976,2063.3897594639984
2863.8395,2070.078538852243
2864.9808,2101.1031180560535
2866.1214,2119.5643463595216
2867.2614,2123.8630520357106
2868.4007,2141.6000421620415
2869.5393,2155.726102577304
2870.6773,2158.0919977042895
2871.8146,2177.648470408528
2872.9513,2168.196241974629
2874.0874,2166.6860119107228
2875.2227,2146.718458042974
2876.3574,2125.494236530689
2877.4915,2123.5139820659906
2878.6249,2089.028308086061
2879.7577,2064.5378067929414
2880.8898,2040.3930494983908
2882.0212,2020.6945868687924
2883.152,2017.8929491665974
2884.2821,1988.1386464473142
2885.4116,1991.0321685875206
2886.5405,1985.8239855824088
2887.6686,2005.96454751685
2888.7962,2011.8542846174764
2889.923,1996.7936070512744
2891.0493,2020.132904866689
2892.1748,2024.3225481442278
2893.2997,2035.8128867630735
2894.424,2051.7542503591826
2895.5476,2066.7969482103845
2896.6706,2107.6412690769666
2897.7929,2118.0874810512482
2898.9145,2146.685831149135
2900.0355,2176.536545205659
2901.1559,2221.4898275889955
2902.2756,2252.995860901954
2903.3946,2268.654805532446
2904.513,2302.1667993384235
2905.6308,2325.831957491293
2906.7479,2360.250372140791
2907.8643,2380.8221121783367
2908.9801,2399.397222892846
2910.0953,2396.8757257650145
2911.2098,2398.007618281566
2912.3236,2396.6428739604694
2913.4368,2382.7814423396167
2914.5494,2359.1732489904725
2915.6613,2338.418195656687
2916.7725,2315.0161604901787
2917.8831,2285.766998258683
2918.9931,2260.720540579776
2920.1024,2242.7265962133647
2921.211,2221.08495131215
2922.319,2176.0453696015684
2923.4264,2168.657592596205
2924.5331,2166.871340050194
2925.6391,2148.386310031091
2926.7445,2128.30217893774
2927.8493,2147.4686016851238
2928.9534,2133.235211905203
2930.0569,2125.1016217552506
2931.1597,2120.867422060192
2932.2619,2096.632182393933
2933.3634,2111.9954511217074
2934.4643,2078.406755642428
2935.5645,2082.0656022350527
2936.6641,2033.3714763944722
2937.763,1995.3238427949213
2938.8613,1946.9221457769227
2939.959,1887.5158097277597
2941.056,1818.4542395654958
2942.1523,1738.5868213330361
2943.248,1646.3129228887449
2944.3431,1570.3318947051187
2945.4375,1464.5430707915252
2946.5313,1366.9457694540138
2947.6244,1252.1392943532035
2948.7169,1154.7729354802552
2949.8087,1067.3959703049388
2950.8999,968.3076647492942
2951.9904,891.9572740614021
2953.0803,827.1940438062677
2954.1696,780.8672106293241
2955.2582,707.2260029040644
2956.3462,672.3696411953104
2957.4335,641.2973389956244
2958.5202,603.0083030738733
2959.6062,579.7017337859506
2960.6916,570.0268254576672
2961.7764,551.8327666178166
2962.8605,543.2687400949249
2963.9439,523.633923199191
2965.0267,512.1774878081283
2966.1089,516.1486005629101
2967.1905,519.0964229829369
2968.2714,503.0201114261232
2969.3516,512.7688170594206
2970.4312,531.6916860195785
2971.5102,531.4378593156596
2972.5885,520.2564726398093
2973.6662,524.9466563697945
2974.7432,523.9575356808191
2975.8196,521.038230498621
2976.8954,514.0878555093632
2977.9705,509.05552018882645
2979.045,501.7903288719151
2980.1188,483.5413808029775
2981.192,470.55777020845983
2982.2645,461.0885864793953
2983.3364,432.08291430123904
2984.4077,396.63983374856195
2985.4783,386.4584205751054
2986.5483,348.0377465682129
2987.6177,320.17687965064556
2988.6864,289.674884264786
2989.7545,258.8808216512491
2990.8219,230.39375015390158
2991.8887,191.012725527802
2992.9548,176.5868012240726
2994.0204,144.5650287837085
2995.0852,126.79645798183685
2996.1495,107.58013714793549
2997.2131,80.16511334351844
2998.276,70.350432554299
2999.3383,61.635139964339714
3000.4,42.71828005419934
3001.4611,22.49889668808578
3002.5215,22.72603330302468
3003.5812,16.348733111053434
3004.6404,7.216039096949203
3005.6989,-1.7230059179978525
3006.7567,-1.3693591846576965
3007.8139,-18.473960741071323
3008.8705,-13.037736945382107
3009.9264,-11.411429600865858
3010.9818,-7.195650263806783
3012.0364,-4.84089649030841
3013.0905,-12.147593951928343
3014.1439,-3.016119959668572
3015.1966,-10.346730470067882
3016.2487,5.560348691372951
3017.3002,3.8049950629898603
3018.3511,5.137086127515545
3019.4013,13.956499329633857
3020.4509,20.563112062657524
3021.4998,22.356801580334718
3022.5481,33.6874449307827
3023.5958,30.154918938550964
3024.6428,35.459100091314895
3025.6892,40.449864575201104
3026.735,45.42708822174541
3027.7802,49.84064645798503
3028.8247,63.3904142566862
3029.8685,66.27626609220965
3030.9118,75.49807580501226
3031.9544,83.05571657278858
3032.9963,88.74906081825361
3034.0376,100.82798013356341
3035.0783,107.59234522338465
3036.1184,119.94202578410466
3037.1578,111.77689043618705
3038.1966,123.84680660067556
3039.2348,135.5016405808459
3040.2723,135.59125744150526
3041.3092,134.3155208924453
3042.3455,135.27429328754556
3043.3811,140.4174356375305
3044.4161,132.19480760038175
3045.4505,136.75626742990767
3046.4842,131.75167205796913
3047.5173,128.03087704886445
3048.5498,128.49373664937593
3049.5816,122.79010382597744
3050.6128,133.66983026020569
3051.6434,116.98276640569611
3052.6734,109.72876137938636
3053.7027,115.0576631283866
3054.7314,113.66931850251967
3055.7594,109.86357320103241
3056.7868,106.34027178647898
3057.8136,106.7992577227775
3058.8398,109.19037341044395
3059.8653,104.21346018200234
3060.8902,105.56835827807299
3061.9145,100.6049068971422
3062.9381,102.47294418201238
3063.9612,89.27230726943753
3064.9835,85.25283227144212
3066.0053,96.81435440732787
3067.0264,83.60670804386803
3068.0469,91.42972657969233
3069.0668,75.78324257736404
3070.086,75.91708768514945
3071.1046,70.73109279348228
3072.1226,65.52508803362582
3073.1399,54.64890282953235
3074.1567,53.60236594990374
3075.1727,51.88530561695268
3076.1882,44.14754951686882
3077.203,36.83892481698888
3078.2173,30.059258243174384
3079.2308,26.20837615289821
3080.2438,27.436104603040576
3081.2561,15.492269388398086
3082.2678,14.62669602940673
3083.2789,19.339209891579912
3084.2893,6.479636194164357
3085.2991,10.347799963014893
3086.3083,2.7435261591901963
3087.3169,7.066639640271319
3088.3248,6.1169652364040985
3089.3321,-2.455672292931638
3090.3388,-2.651448249425357
3091.3449,2.679486597399432
3092.3503,0.3370079659875387
3093.3551,-0.9790084520111009
3094.3593,-2.3686903316561256
3095.3629,-7.832155567713187
3096.3658,-6.069498391731258
3097.3681,0.8692652079743652
3098.3698,-1.215820122622631
3099.3708,2.3252815784916265
3100.3713,3.2926184193738663
3101.3711,-1.8137615151718478
3102.3702,-3.693810173267252
3103.3688,-4.047461383556879
3104.3667,-2.474612073521598
3105.364,-2.875118736503339
3106.3607,2.9511868555305796
3107.3568,3.5545016530487032
3108.3522,3.385022577008044
3109.347,4.292946512820663
3110.3412,4.628470312048421
3111.3348,5.641790783324268
3112.3277,11.833104688996059
3113.32,12.852608734994192
3114.3117,8.950499508918085
3115.3028,12.326973469841278
3116.2932,10.432226987332456
3117.2831,12.666456307691021
3118.2723,18.129857572894025
3119.2608,14.772626798254237
3120.2488,13.294959817786207
3121.2361,19.497052317778184
3122.2229,16.479099851569174
3123.209,25.64129777752771
3124.1944,23.28384128923136
3125.1793,24.15692532384503
3126.1635,28.160744585695056
3127.1471,31.945493537538766
3128.1301,25.761366360526722
3129.1125,32.30855691635486
3130.0942,36.53725880910588
3131.0753,37.347665319776866
3132.0558,39.13996936399275
3133.0357,34.814363483901786
3134.015,32.92103983025282
3134.9936,39.5101902056511
3135.9716,35.482006083491854
3136.949,39.98667854206832
3137.9258,38.42439830485392
3138.902,41.64535569545541
3139.8775,43.749740653235534
3140.8524,51.08774270110371
3141.8267,48.65955092447203
3142.8004,50.06535389787524
3143.7735,51.25533970925275
3144.7459,48.87969594589066
3145.7178,56.08860968252159
3146.689,56.23226750508135
3147.6596,52.91085543861982
3148.6295,56.924558945864106
3149.5989,51.17356296043283
3150.5676,63.90805184669935
3151.5357,60.42820945730148
3152.5032,63.93421900579668
3153.4701,61.22626310146026
3154.4364,63.90452371422569
3155.402,63.119182201763635
3156.367,71.0204192826998
3157.3315,68.50841504446811
3158.2952,73.7833488642986
3159.2584,70.09539943433725
3160.221,66.24474470889672
3161.1829,73.03156194133547
3162.1442,73.0560277225648
3163.105,67.51831791318037
3164.065,75.66860764321777
3165.0245,79.00707136752936
3165.9834,75.08388278428149
3166.9416,79.74921480156996
3167.8993,78.20323957665181
3168.8563,80.3461284692919
3169.8127,84.32805205722278
3170.7684,79.99918011471578
3171.7236,83.20968157276181
3172.6782,85.85972456236013
3173.6321,81.54947638241313
3174.5854,87.129103473226
3175.5381,85.79877145960933
3176.4902,86.00864509508264
3177.4417,90.90888827517793
3178.3926,92.59966403534068
3179.3428,96.33113450192775
3180.2924,95.15346087529943
3181.2415,93.66680339250473
3182.1899,95.42132133905812
3183.1377,99.81717306380612
3184.0848,98.35451596138202
3185.0314,101.33350642824752
3185.9773,103.5042998773191
3186.9227,109.76705070817816
3187.8674,103.27191228536314
3188.8115,105.719036875742
3189.755,112.4085757134637
3190.6979,110.49067897548677
3191.6402,109.46549571468412
3192.5818,111.2331738790219
3193.5229,111.6938603218114
3194.4633,114.8977007840322
3195.4031,117.99483988972536
3196.3423,118.03542111395488
3197.2809,119.16958675183645
3198.2189,119.29747791813146
3199.1563,120.21923453590557
3200.0931,126.43499533524968
3201.0292,129.2448978440623
3201.9648,126.84907832589207
3202.8997,126.24767175183865
3203.834,134.29081182451097
3204.7677,129.5786309840413
3205.7008,131.71126032765378
3206.6333,132.8888296567863
3207.5652,135.41146745576427
3208.4964,133.57930088002473
3209.4271,143.09245573089018
3210.3571,139.0010564738901
3211.2865,136.7552261436294
3212.2154,142.00508638470245
3213.1436,139.95075747415143
3214.0712,144.0423582689676
3214.9982,144.4300062266347
3215.9246,148.76381736421294
3216.8503,146.04390625446248
3217.7755,148.67038598250534
3218.7001,145.1433681730245
3219.624,148.81296296399904
3220.5473,150.57927904197453
3221.4701,156.9424236053667
3222.3922,153.15250234679888
3223.3137,158.75961938946986
3224.2346,158.3638773250536
3225.1549,162.76537715762788
3226.0746,160.61421830763157
3226.9937,161.81049856784995
3227.9121,166.60431412492602
3228.83,171.44575954739776
3229.7473,162.98492773776007
3230.6639,170.07190988405026
3231.5799,170.8567955444564
3232.4954,171.93967257644738
3233.4102,173.87062712892424
3234.3244,171.7997436313912
3235.238,171.32710477464636
3236.151,176.35279153149025
3237.0634,179.67688316145245
3237.9752,178.5494571605345
3238.8864,178.62058922796928
3239.797,183.29035327749494
3240.7069,178.50882143664379
3241.6163,183.9260640000446
3242.5251,185.24214947723777
3243.4332,187.70714453850334
3244.3408,187.57111400169956
3245.2477,187.03412080761336
3246.154,193.8462260213206
3247.0598,191.15748883755575
3247.9649,193.76796651259104
3248.8694,195.7277143911239
3249.7733,195.68678588017193
3250.6766,196.74523242947566
3251.5793,199.45310353190774
3252.4814,197.3604467128884
3253.3829,198.9173075033068
3254.2838,204.4237294604476
3255.1841,205.12975415242232
3256.0838,204.68542110310523
3256.9829,205.89076778507288
3257.8814,206.44582962404775
3258.7792,201.30063998684443
3259.6765,209.2052301758193
3260.5731,207.75962948032236
3261.4692,207.4138650976512
3262.3647,209.76796214750735
3263.2595,204.57194367545338
3264.1538,210.27583062937236
3265.0474,209.92964191142778
3265.9404,210.68339432102482
3266.8329,207.43710255827222
3267.7247,210.1407792164446
3268.616,209.69443481444563
3269.5066,211.0480777697712
3270.3966,209.8017144029726
3271.286,211.20534892412056
